   137.49999999999997        3.9999999999999996     
   137.50657894736838        3.9999999999999996     
   137.51315789473682        4.0000000000000000     
   137.51973684210523        4.0000000000000000     
   137.52631578947364        4.0000000000000009     
   137.53289473684208        4.0000000000000000     
   137.53947368421049        4.0000000000000000     
   137.54605263157893        4.0000000000000009     
   137.55263157894734        4.0000000000000000     
   137.55921052631575        4.0000000000000000     
   137.56578947368419        4.0000000000000009     
   137.57236842105260        4.0000000000000000     
   137.57894736842101        4.0000000000000000     
   137.58552631578945        4.0000000000000000     
   137.59210526315786        4.0000000000000000     
   137.59868421052630        4.0000000000000000     
   137.60526315789471        4.0000000000000000     
   137.61184210526312        3.9999999999999996     
   137.61842105263156        4.0000000000000000     
   137.62499999999997        4.0000000000000000     
   137.63157894736838        4.0000000000000000     
   137.63815789473682        4.0000000000000000     
   137.64473684210523        4.0000000000000000     
   137.65131578947367        4.0000000000000000     
   137.65789473684208        4.0000000000000009     
   137.66447368421049        4.0000000000000000     
   137.67105263157893        4.0000000000000000     
   137.67763157894734        4.0000000000000000     
   137.68421052631575        4.0000000000000009     
   137.69078947368419        4.0000000000000000     
   137.69736842105260        4.0000000000000000     
   137.70394736842101        4.0000000000000000     
   137.71052631578945        3.9999999999999996     
   137.71710526315786        4.0000000000000000     
   137.72368421052630        4.0000000000000000     
   137.73026315789471        3.9999999999999996     
   137.73684210526312        4.0000000000000000     
   137.74342105263156        4.0000000000000000     
   137.74999999999997        4.0000000000000000     
   137.75657894736838        4.0000000000000000     
   137.76315789473682        4.0000000000000000     
   137.76973684210523        4.0000000000000000     
   137.77631578947367        3.9999999999999996     
   137.78289473684208        4.0000000000000000     
   137.78947368421049        4.0000000000000000     
   137.79605263157893        4.0000000000000000     
   137.80263157894734        4.0000000000000000     
   137.80921052631575        3.9999999999999991     
   137.81578947368419        4.0000000000000000     
   137.82236842105260        4.0000000000000000     
   137.82894736842104        4.0000000000000000     
   137.83552631578945        4.0000000000000000     
   137.84210526315786        4.0000000000000000     
   137.84868421052630        3.9999999999999996     
   137.85526315789471        4.0000000000000000     
   137.86184210526312        3.9999999999999996     
   137.86842105263156        4.0000000000000009     
   137.87499999999997        4.0000000000000000     
   137.88157894736838        4.0000000000000000     
   137.88815789473682        3.9999999999999996     
   137.89473684210523        4.0000000000000000     
   137.90131578947367        3.9999999999999996     
   137.90789473684208        4.0000000000000000     
   137.91447368421049        4.0000000000000009     
   137.92105263157893        4.0000000000000000     
   137.92763157894734        3.9999999999999996     
   137.93421052631575        4.0000000000000000     
   137.94078947368419        4.0000000000000000     
   137.94736842105260        4.0000000000000000     
   137.95394736842104        3.9999999999999996     
   137.96052631578945        4.0000000000000000     
   137.96710526315786        3.9999999999999996     
   137.97368421052630        4.0000000000000000     
   137.98026315789471        4.0000000000000000     
   137.98684210526312        3.9999999999999996     
   137.99342105263156        4.0000000000000000     
   137.99999999999997        3.9999999999999996     
   138.00657894736838        4.0000000000000000     
   138.01315789473682        4.0000000000000000     
   138.01973684210523        3.9999999999999996     
   138.02631578947367        4.0000000000000000     
   138.03289473684208        3.9999999999999996     
   138.03947368421049        3.9999999999999996     
   138.04605263157893        4.0000000000000000     
   138.05263157894734        4.0000000000000000     
   138.05921052631575        4.0000000000000009     
   138.06578947368419        4.0000000000000000     
   138.07236842105260        4.0000000000000000     
   138.07894736842104        4.0000000000000000     
   138.08552631578945        4.0000000000000000     
   138.09210526315786        4.0000000000000000     
   138.09868421052630        4.0000000000000000     
   138.10526315789471        4.0000000000000000     
   138.11184210526312        4.0000000000000000     
   138.11842105263156        4.0000000000000000     
   138.12499999999997        4.0000000000000000     
   138.13157894736841        4.0000000000000000     
   138.13815789473682        4.0000000000000000     
   138.14473684210523        3.9999999999999996     
   138.15131578947367        4.0000000000000000     
   138.15789473684208        4.0000000000000000     
   138.16447368421049        3.9999999999999991     
   138.17105263157893        4.0000000000000000     
   138.17763157894734        4.0000000000000000     
   138.18421052631575        3.9999999999999996     
   138.19078947368419        4.0000000000000000     
   138.19736842105260        4.0000000000000000     
   138.20394736842104        4.0000000000000000     
   138.21052631578945        4.0000000000000000     
   138.21710526315786        4.0000000000000000     
   138.22368421052630        4.0000000000000000     
   138.23026315789471        4.0000000000000000     
   138.23684210526312        4.0000000000000000     
   138.24342105263156        3.9999999999999996     
   138.24999999999997        4.0000000000000000     
   138.25657894736841        4.0000000000000000     
   138.26315789473682        4.0000000000000000     
   138.26973684210523        4.0000000000000000     
   138.27631578947367        4.0000000000000000     
   138.28289473684208        3.9999999999999996     
   138.28947368421049        3.9999999999999996     
   138.29605263157893        4.0000000000000000     
   138.30263157894734        4.0000000000000000     
   138.30921052631578        3.9999999999999996     
   138.31578947368419        3.9999999999999996     
   138.32236842105260        3.9999999999999996     
   138.32894736842104        4.0000000000000000     
   138.33552631578945        4.0000000000000000     
   138.34210526315786        4.0000000000000000     
   138.34868421052630        4.0000000000000000     
   138.35526315789471        4.0000000000000000     
   138.36184210526312        3.9999999999999996     
   138.36842105263156        4.0000000000000000     
   138.37499999999997        4.0000000000000000     
   138.38157894736841        3.9999999999999996     
   138.38815789473682        4.0000000000000000     
   138.39473684210523        3.9999999999999996     
   138.40131578947367        4.0000000000000009     
   138.40789473684208        3.9999999999999996     
   138.41447368421049        4.0000000000000000     
   138.42105263157893        3.9999999999999996     
   138.42763157894734        3.9999999999999996     
   138.43421052631578        4.0000000000000000     
   138.44078947368419        3.9999999999999996     
   138.44736842105260        4.0000000000000009     
   138.45394736842104        4.0000000000000000     
   138.46052631578945        3.9999999999999996     
   138.46710526315786        3.9999999999999996     
   138.47368421052630        4.0000000000000000     
   138.48026315789471        3.9999999999999996     
   138.48684210526312        4.0000000000000000     
   138.49342105263156        4.0000000000000000     
   138.49999999999997        4.0000000000000000     
   138.50657894736841        3.9999999999999996     
   138.51315789473682        3.9999999999999996     
   138.51973684210523        4.0000000000000000     
   138.52631578947367        4.0000000000000000     
   138.53289473684208        3.9999999999999996     
   138.53947368421049        4.0000000000000000     
   138.54605263157893        3.9999999999999996     
   138.55263157894734        4.0000000000000009     
   138.55921052631578        4.0000000000000000     
   138.56578947368419        4.0000000000000000     
   138.57236842105260        4.0000000000000000     
   138.57894736842104        4.0000000000000000     
   138.58552631578945        3.9999999999999996     
   138.59210526315786        3.9999999999999996     
   138.59868421052630        3.9999999999999996     
   138.60526315789471        4.0000000000000000     
   138.61184210526315        3.9999999999999996     
   138.61842105263156        4.0000000000000009     
   138.62499999999997        3.9999999999999996     
   138.63157894736841        4.0000000000000000     
   138.63815789473682        4.0000000000000000     
   138.64473684210523        4.0000000000000000     
   138.65131578947367        4.0000000000000000     
   138.65789473684208        4.0000000000000000     
   138.66447368421049        4.0000000000000000     
   138.67105263157893        4.0000000000000000     
   138.67763157894734        3.9999999999999996     
   138.68421052631578        3.9999999999999996     
   138.69078947368419        4.0000000000000000     
   138.69736842105260        4.0000000000000000     
   138.70394736842104        4.0000000000000009     
   138.71052631578945        4.0000000000000009     
   138.71710526315786        4.0000000000000000     
   138.72368421052630        4.0000000000000000     
   138.73026315789471        4.0000000000000000     
   138.73684210526315        4.0000000000000000     
   138.74342105263156        4.0000000000000000     
   138.74999999999997        4.0000000000000000     
   138.75657894736841        4.0000000000000000     
   138.76315789473682        4.0000000000000000     
   138.76973684210523        4.0000000000000000     
   138.77631578947367        4.0000000000000000     
   138.78289473684208        4.0000000000000000     
   138.78947368421052        3.9999999999999996     
   138.79605263157893        4.0000000000000000     
   138.80263157894734        4.0000000000000000     
   138.80921052631578        4.0000000000000000     
   138.81578947368419        4.0000000000000000     
   138.82236842105260        4.0000000000000000     
   138.82894736842104        3.9999999999999996     
   138.83552631578945        4.0000000000000000     
   138.84210526315786        4.0000000000000000     
   138.84868421052630        4.0000000000000000     
   138.85526315789471        4.0000000000000000     
   138.86184210526315        4.0000000000000000     
   138.86842105263156        3.9999999999999996     
   138.87499999999997        4.0000000000000000     
   138.88157894736841        4.0000000000000000     
   138.88815789473682        3.9999999999999996     
   138.89473684210523        4.0000000000000000     
   138.90131578947367        4.0000000000000000     
   138.90789473684208        4.0000000000000000     
   138.91447368421052        4.0000000000000000     
   138.92105263157893        4.0000000000000000     
   138.92763157894734        4.0000000000000000     
   138.93421052631578        4.0000000000000000     
   138.94078947368419        4.0000000000000009     
   138.94736842105260        4.0000000000000000     
   138.95394736842104        4.0000000000000009     
   138.96052631578945        4.0000000000000009     
   138.96710526315789        4.0000000000000000     
   138.97368421052630        4.0000000000000000     
   138.98026315789471        4.0000000000000000     
   138.98684210526315        4.0000000000000000     
   138.99342105263156        4.0000000000000009     
   138.99999999999997        3.9999999999999996     
   139.00657894736841        4.0000000000000009     
   139.01315789473682        4.0000000000000000     
   139.01973684210523        4.0000000000000000     
   139.02631578947367        3.9999999999999996     
   139.03289473684208        4.0000000000000000     
   139.03947368421052        4.0000000000000009     
   139.04605263157893        4.0000000000000000     
   139.05263157894734        4.0000000000000000     
   139.05921052631578        4.0000000000000000     
   139.06578947368419        4.0000000000000000     
   139.07236842105260        4.0000000000000000     
   139.07894736842104        4.0000000000000000     
   139.08552631578945        4.0000000000000000     
   139.09210526315789        4.0000000000000000     
   139.09868421052630        4.0000000000000000     
   139.10526315789471        4.0000000000000000     
   139.11184210526315        4.0000000000000000     
   139.11842105263156        4.0000000000000000     
   139.12499999999997        3.9999999999999996     
   139.13157894736841        4.0000000000000000     
   139.13815789473682        4.0000000000000000     
   139.14473684210526        3.9999999999999996     
   139.15131578947367        4.0000000000000000     
   139.15789473684208        4.0000000000000000     
   139.16447368421052        3.9999999999999996     
   139.17105263157893        4.0000000000000000     
   139.17763157894734        4.0000000000000000     
   139.18421052631578        4.0000000000000000     
   139.19078947368419        4.0000000000000000     
   139.19736842105260        3.9999999999999996     
   139.20394736842104        4.0000000000000000     
   139.21052631578945        4.0000000000000000     
   139.21710526315789        4.0000000000000000     
   139.22368421052630        4.0000000000000000     
   139.23026315789471        4.0000000000000000     
   139.23684210526315        4.0000000000000000     
   139.24342105263156        4.0000000000000000     
   139.24999999999997        4.0000000000000000     
   139.25657894736841        4.0000000000000000     
   139.26315789473682        4.0000000000000000     
   139.26973684210526        4.0000000000000000     
   139.27631578947367        3.9999999999999991     
   139.28289473684208        4.0000000000000009     
   139.28947368421052        4.0000000000000000     
   139.29605263157893        4.0000000000000000     
   139.30263157894734        3.9999999999999996     
   139.30921052631578        4.0000000000000000     
   139.31578947368419        4.0000000000000000     
   139.32236842105260        4.0000000000000000     
   139.32894736842104        4.0000000000000000     
   139.33552631578945        4.0000000000000000     
   139.34210526315789        4.0000000000000000     
   139.34868421052630        4.0000000000000000     
   139.35526315789471        3.9999999999999996     
   139.36184210526315        4.0000000000000009     
   139.36842105263156        4.0000000000000000     
   139.37499999999997        3.9999999999999996     
   139.38157894736841        4.0000000000000000     
   139.38815789473682        4.0000000000000000     
   139.39473684210526        3.9999999999999996     
   139.40131578947367        4.0000000000000000     
   139.40789473684208        3.9999999999999996     
   139.41447368421052        3.9999999999999996     
   139.42105263157893        4.0000000000000000     
   139.42763157894734        4.0000000000000000     
   139.43421052631578        4.0000000000000000     
   139.44078947368419        3.9999999999999996     
   139.44736842105263        4.0000000000000000     
   139.45394736842104        4.0000000000000000     
   139.46052631578945        3.9999999999999996     
   139.46710526315789        4.0000000000000000     
   139.47368421052630        3.9999999999999996     
   139.48026315789471        4.0000000000000000     
   139.48684210526315        4.0000000000000000     
   139.49342105263156        4.0000000000000009     
   139.49999999999997        4.0000000000000000     
   139.50657894736841        4.0000000000000000     
   139.51315789473682        3.9999999999999996     
   139.51973684210526        3.9999999999999996     
   139.52631578947367        4.0000000000000000     
   139.53289473684208        3.9999999999999996     
   139.53947368421052        4.0000000000000000     
   139.54605263157893        4.0000000000000000     
   139.55263157894734        4.0000000000000000     
   139.55921052631578        4.0000000000000000     
   139.56578947368419        4.0000000000000000     
   139.57236842105263        4.0000000000000000     
   139.57894736842104        4.0000000000000000     
   139.58552631578945        4.0000000000000000     
   139.59210526315789        4.0000000000000000     
   139.59868421052630        3.9999999999999996     
   139.60526315789471        4.0000000000000000     
   139.61184210526315        4.0000000000000000     
   139.61842105263156        4.0000000000000000     
   139.62500000000000        4.0000000000000000     
   139.63157894736841        4.0000000000000000     
   139.63815789473682        4.0000000000000000     
   139.64473684210526        3.9999999999999996     
   139.65131578947367        4.0000000000000000     
   139.65789473684208        4.0000000000000000     
   139.66447368421052        3.9999999999999996     
   139.67105263157893        4.0000000000000000     
   139.67763157894734        3.9999999999999996     
   139.68421052631578        3.9999999999999996     
   139.69078947368419        4.0000000000000000     
   139.69736842105263        4.0000000000000009     
   139.70394736842104        3.9999999999999996     
   139.71052631578945        4.0000000000000000     
   139.71710526315789        4.0000000000000000     
   139.72368421052630        4.0000000000000000     
   139.73026315789471        4.0000000000000000     
   139.73684210526315        4.0000000000000000     
   139.74342105263156        4.0000000000000000     
   139.75000000000000        3.9999999999999991     
   139.75657894736841        4.0000000000000000     
   139.76315789473682        3.9999999999999996     
   139.76973684210526        4.0000000000000000     
   139.77631578947367        4.0000000000000000     
   139.78289473684208        4.0000000000000000     
   139.78947368421052        3.9999999999999996     
   139.79605263157893        4.0000000000000000     
   139.80263157894734        4.0000000000000000     
   139.80921052631578        4.0000000000000000     
   139.81578947368419        4.0000000000000000     
   139.82236842105263        4.0000000000000000     
   139.82894736842104        3.9999999999999996     
   139.83552631578945        4.0000000000000009     
   139.84210526315789        4.0000000000000000     
   139.84868421052630        4.0000000000000000     
   139.85526315789471        3.9999999999999996     
   139.86184210526315        4.0000000000000000     
   139.86842105263156        4.0000000000000000     
   139.87500000000000        4.0000000000000000     
   139.88157894736841        4.0000000000000000     
   139.88815789473682        4.0000000000000000     
   139.89473684210526        4.0000000000000000     
   139.90131578947367        4.0000000000000009     
   139.90789473684208        4.0000000000000000     
   139.91447368421052        4.0000000000000000     
   139.92105263157893        4.0000000000000000     
   139.92763157894737        4.0000000000000000     
   139.93421052631578        4.0000000000000000     
   139.94078947368419        4.0000000000000000     
   139.94736842105263        4.0000000000000000     
   139.95394736842104        4.0000000000000000     
   139.96052631578945        4.0000000000000000     
   139.96710526315789        4.0000000000000000     
   139.97368421052630        4.0000000000000000     
   139.98026315789471        3.9999999999999996     
   139.98684210526315        4.0000000000000000     
   139.99342105263156        4.0000000000000000     
   140.00000000000000        3.9999999999999996     
>
   137.49999999999997       -79.999999999999986     
   137.50657894736838       -80.000000000000000     
   137.51315789473682       -80.000000000000014     
   137.51973684210523       -79.999999999999986     
   137.52631578947364       -80.000000000000000     
   137.53289473684208       -80.000000000000014     
   137.53947368421049       -80.000000000000000     
   137.54605263157893       -80.000000000000000     
   137.55263157894734       -80.000000000000000     
   137.55921052631575       -80.000000000000000     
   137.56578947368419       -80.000000000000014     
   137.57236842105260       -79.999999999999986     
   137.57894736842101       -80.000000000000000     
   137.58552631578945       -80.000000000000014     
   137.59210526315786       -80.000000000000000     
   137.59868421052630       -80.000000000000000     
   137.60526315789471       -80.000000000000000     
   137.61184210526312       -79.999999999999986     
   137.61842105263156       -80.000000000000000     
   137.62499999999997       -80.000000000000000     
   137.63157894736838       -80.000000000000000     
   137.63815789473682       -79.999999999999986     
   137.64473684210523       -80.000000000000000     
   137.65131578947367       -79.999999999999986     
   137.65789473684208       -80.000000000000014     
   137.66447368421049       -80.000000000000000     
   137.67105263157893       -80.000000000000000     
   137.67763157894734       -80.000000000000000     
   137.68421052631575       -80.000000000000014     
   137.69078947368419       -80.000000000000000     
   137.69736842105260       -80.000000000000000     
   137.70394736842101       -80.000000000000000     
   137.71052631578945       -79.999999999999986     
   137.71710526315786       -80.000000000000000     
   137.72368421052630       -80.000000000000000     
   137.73026315789471       -80.000000000000000     
   137.73684210526312       -80.000000000000000     
   137.74342105263156       -80.000000000000000     
   137.74999999999997       -80.000000000000014     
   137.75657894736838       -80.000000000000000     
   137.76315789473682       -80.000000000000000     
   137.76973684210523       -80.000000000000014     
   137.77631578947367       -79.999999999999986     
   137.78289473684208       -80.000000000000000     
   137.78947368421049       -80.000000000000000     
   137.79605263157893       -80.000000000000000     
   137.80263157894734       -80.000000000000014     
   137.80921052631575       -80.000000000000000     
   137.81578947368419       -80.000000000000000     
   137.82236842105260       -79.999999999999986     
   137.82894736842104       -79.999999999999986     
   137.83552631578945       -80.000000000000000     
   137.84210526315786       -80.000000000000000     
   137.84868421052630       -80.000000000000000     
   137.85526315789471       -80.000000000000000     
   137.86184210526312       -80.000000000000000     
   137.86842105263156       -80.000000000000014     
   137.87499999999997       -80.000000000000000     
   137.88157894736838       -79.999999999999986     
   137.88815789473682       -80.000000000000000     
   137.89473684210523       -80.000000000000014     
   137.90131578947367       -80.000000000000000     
   137.90789473684208       -80.000000000000000     
   137.91447368421049       -80.000000000000014     
   137.92105263157893       -80.000000000000000     
   137.92763157894734       -80.000000000000000     
   137.93421052631575       -80.000000000000000     
   137.94078947368419       -80.000000000000000     
   137.94736842105260       -80.000000000000000     
   137.95394736842104       -79.999999999999986     
   137.96052631578945       -80.000000000000000     
   137.96710526315786       -80.000000000000000     
   137.97368421052630       -80.000000000000000     
   137.98026315789471       -80.000000000000000     
   137.98684210526312       -80.000000000000000     
   137.99342105263156       -80.000000000000000     
   137.99999999999997       -80.000000000000000     
   138.00657894736838       -79.999999999999986     
   138.01315789473682       -79.999999999999986     
   138.01973684210523       -79.999999999999986     
   138.02631578947367       -80.000000000000000     
   138.03289473684208       -80.000000000000000     
   138.03947368421049       -80.000000000000000     
   138.04605263157893       -80.000000000000000     
   138.05263157894734       -80.000000000000014     
   138.05921052631575       -80.000000000000000     
   138.06578947368419       -80.000000000000000     
   138.07236842105260       -80.000000000000000     
   138.07894736842104       -80.000000000000014     
   138.08552631578945       -80.000000000000000     
   138.09210526315786       -80.000000000000000     
   138.09868421052630       -79.999999999999986     
   138.10526315789471       -80.000000000000000     
   138.11184210526312       -80.000000000000000     
   138.11842105263156       -80.000000000000000     
   138.12499999999997       -80.000000000000000     
   138.13157894736841       -80.000000000000000     
   138.13815789473682       -79.999999999999986     
   138.14473684210523       -80.000000000000000     
   138.15131578947367       -80.000000000000000     
   138.15789473684208       -80.000000000000000     
   138.16447368421049       -79.999999999999986     
   138.17105263157893       -80.000000000000000     
   138.17763157894734       -80.000000000000014     
   138.18421052631575       -80.000000000000000     
   138.19078947368419       -80.000000000000000     
   138.19736842105260       -80.000000000000000     
   138.20394736842104       -79.999999999999986     
   138.21052631578945       -80.000000000000000     
   138.21710526315786       -80.000000000000000     
   138.22368421052630       -80.000000000000000     
   138.23026315789471       -80.000000000000000     
   138.23684210526312       -80.000000000000000     
   138.24342105263156       -80.000000000000000     
   138.24999999999997       -80.000000000000000     
   138.25657894736841       -79.999999999999986     
   138.26315789473682       -80.000000000000014     
   138.26973684210523       -80.000000000000000     
   138.27631578947367       -80.000000000000000     
   138.28289473684208       -80.000000000000000     
   138.28947368421049       -80.000000000000000     
   138.29605263157893       -80.000000000000000     
   138.30263157894734       -80.000000000000014     
   138.30921052631578       -80.000000000000000     
   138.31578947368419       -80.000000000000000     
   138.32236842105260       -80.000000000000014     
   138.32894736842104       -80.000000000000000     
   138.33552631578945       -80.000000000000000     
   138.34210526315786       -80.000000000000000     
   138.34868421052630       -80.000000000000014     
   138.35526315789471       -80.000000000000000     
   138.36184210526312       -79.999999999999986     
   138.36842105263156       -80.000000000000000     
   138.37499999999997       -80.000000000000014     
   138.38157894736841       -79.999999999999986     
   138.38815789473682       -80.000000000000000     
   138.39473684210523       -79.999999999999986     
   138.40131578947367       -80.000000000000014     
   138.40789473684208       -80.000000000000000     
   138.41447368421049       -80.000000000000000     
   138.42105263157893       -80.000000000000000     
   138.42763157894734       -80.000000000000000     
   138.43421052631578       -80.000000000000000     
   138.44078947368419       -79.999999999999986     
   138.44736842105260       -80.000000000000000     
   138.45394736842104       -80.000000000000000     
   138.46052631578945       -80.000000000000000     
   138.46710526315786       -80.000000000000000     
   138.47368421052630       -80.000000000000014     
   138.48026315789471       -80.000000000000000     
   138.48684210526312       -80.000000000000000     
   138.49342105263156       -80.000000000000000     
   138.49999999999997       -80.000000000000014     
   138.50657894736841       -80.000000000000000     
   138.51315789473682       -80.000000000000000     
   138.51973684210523       -80.000000000000000     
   138.52631578947367       -79.999999999999986     
   138.53289473684208       -80.000000000000000     
   138.53947368421049       -80.000000000000000     
   138.54605263157893       -79.999999999999986     
   138.55263157894734       -80.000000000000014     
   138.55921052631578       -80.000000000000000     
   138.56578947368419       -80.000000000000000     
   138.57236842105260       -80.000000000000000     
   138.57894736842104       -80.000000000000000     
   138.58552631578945       -80.000000000000000     
   138.59210526315786       -79.999999999999986     
   138.59868421052630       -80.000000000000000     
   138.60526315789471       -80.000000000000000     
   138.61184210526315       -80.000000000000000     
   138.61842105263156       -80.000000000000000     
   138.62499999999997       -79.999999999999986     
   138.63157894736841       -80.000000000000000     
   138.63815789473682       -80.000000000000000     
   138.64473684210523       -80.000000000000000     
   138.65131578947367       -80.000000000000000     
   138.65789473684208       -80.000000000000000     
   138.66447368421049       -80.000000000000000     
   138.67105263157893       -80.000000000000000     
   138.67763157894734       -79.999999999999986     
   138.68421052631578       -79.999999999999986     
   138.69078947368419       -80.000000000000000     
   138.69736842105260       -79.999999999999986     
   138.70394736842104       -80.000000000000014     
   138.71052631578945       -80.000000000000014     
   138.71710526315786       -80.000000000000000     
   138.72368421052630       -79.999999999999986     
   138.73026315789471       -79.999999999999986     
   138.73684210526315       -80.000000000000000     
   138.74342105263156       -80.000000000000000     
   138.74999999999997       -80.000000000000000     
   138.75657894736841       -80.000000000000000     
   138.76315789473682       -80.000000000000000     
   138.76973684210523       -80.000000000000000     
   138.77631578947367       -80.000000000000000     
   138.78289473684208       -80.000000000000000     
   138.78947368421052       -80.000000000000000     
   138.79605263157893       -80.000000000000014     
   138.80263157894734       -80.000000000000014     
   138.80921052631578       -80.000000000000014     
   138.81578947368419       -79.999999999999986     
   138.82236842105260       -80.000000000000000     
   138.82894736842104       -79.999999999999986     
   138.83552631578945       -80.000000000000000     
   138.84210526315786       -80.000000000000000     
   138.84868421052630       -80.000000000000000     
   138.85526315789471       -79.999999999999986     
   138.86184210526315       -80.000000000000000     
   138.86842105263156       -79.999999999999986     
   138.87499999999997       -80.000000000000000     
   138.88157894736841       -80.000000000000000     
   138.88815789473682       -80.000000000000000     
   138.89473684210523       -80.000000000000000     
   138.90131578947367       -80.000000000000000     
   138.90789473684208       -80.000000000000014     
   138.91447368421052       -80.000000000000014     
   138.92105263157893       -80.000000000000000     
   138.92763157894734       -80.000000000000000     
   138.93421052631578       -80.000000000000000     
   138.94078947368419       -80.000000000000014     
   138.94736842105260       -80.000000000000000     
   138.95394736842104       -80.000000000000000     
   138.96052631578945       -80.000000000000000     
   138.96710526315789       -80.000000000000000     
   138.97368421052630       -80.000000000000014     
   138.98026315789471       -79.999999999999986     
   138.98684210526315       -79.999999999999986     
   138.99342105263156       -80.000000000000014     
   138.99999999999997       -80.000000000000000     
   139.00657894736841       -80.000000000000014     
   139.01315789473682       -80.000000000000000     
   139.01973684210523       -80.000000000000000     
   139.02631578947367       -79.999999999999986     
   139.03289473684208       -80.000000000000000     
   139.03947368421052       -80.000000000000000     
   139.04605263157893       -80.000000000000014     
   139.05263157894734       -80.000000000000000     
   139.05921052631578       -80.000000000000000     
   139.06578947368419       -80.000000000000000     
   139.07236842105260       -80.000000000000000     
   139.07894736842104       -80.000000000000000     
   139.08552631578945       -80.000000000000000     
   139.09210526315789       -80.000000000000000     
   139.09868421052630       -79.999999999999986     
   139.10526315789471       -80.000000000000000     
   139.11184210526315       -79.999999999999986     
   139.11842105263156       -79.999999999999986     
   139.12499999999997       -80.000000000000000     
   139.13157894736841       -80.000000000000000     
   139.13815789473682       -80.000000000000000     
   139.14473684210526       -80.000000000000000     
   139.15131578947367       -80.000000000000000     
   139.15789473684208       -80.000000000000000     
   139.16447368421052       -80.000000000000000     
   139.17105263157893       -80.000000000000000     
   139.17763157894734       -80.000000000000000     
   139.18421052631578       -80.000000000000000     
   139.19078947368419       -79.999999999999986     
   139.19736842105260       -80.000000000000000     
   139.20394736842104       -80.000000000000000     
   139.21052631578945       -79.999999999999986     
   139.21710526315789       -80.000000000000000     
   139.22368421052630       -80.000000000000000     
   139.23026315789471       -80.000000000000000     
   139.23684210526315       -80.000000000000014     
   139.24342105263156       -80.000000000000014     
   139.24999999999997       -79.999999999999986     
   139.25657894736841       -80.000000000000000     
   139.26315789473682       -80.000000000000000     
   139.26973684210526       -79.999999999999986     
   139.27631578947367       -79.999999999999986     
   139.28289473684208       -80.000000000000000     
   139.28947368421052       -80.000000000000000     
   139.29605263157893       -80.000000000000000     
   139.30263157894734       -80.000000000000000     
   139.30921052631578       -80.000000000000000     
   139.31578947368419       -80.000000000000000     
   139.32236842105260       -80.000000000000000     
   139.32894736842104       -80.000000000000000     
   139.33552631578945       -80.000000000000000     
   139.34210526315789       -80.000000000000000     
   139.34868421052630       -80.000000000000000     
   139.35526315789471       -79.999999999999986     
   139.36184210526315       -80.000000000000014     
   139.36842105263156       -80.000000000000000     
   139.37499999999997       -79.999999999999986     
   139.38157894736841       -80.000000000000000     
   139.38815789473682       -80.000000000000000     
   139.39473684210526       -80.000000000000000     
   139.40131578947367       -79.999999999999986     
   139.40789473684208       -80.000000000000000     
   139.41447368421052       -79.999999999999986     
   139.42105263157893       -79.999999999999986     
   139.42763157894734       -80.000000000000000     
   139.43421052631578       -80.000000000000000     
   139.44078947368419       -80.000000000000000     
   139.44736842105263       -80.000000000000000     
   139.45394736842104       -80.000000000000014     
   139.46052631578945       -80.000000000000000     
   139.46710526315789       -80.000000000000014     
   139.47368421052630       -80.000000000000000     
   139.48026315789471       -80.000000000000000     
   139.48684210526315       -80.000000000000000     
   139.49342105263156       -80.000000000000000     
   139.49999999999997       -80.000000000000000     
   139.50657894736841       -80.000000000000000     
   139.51315789473682       -80.000000000000000     
   139.51973684210526       -79.999999999999986     
   139.52631578947367       -80.000000000000000     
   139.53289473684208       -79.999999999999972     
   139.53947368421052       -80.000000000000014     
   139.54605263157893       -79.999999999999986     
   139.55263157894734       -80.000000000000000     
   139.55921052631578       -79.999999999999986     
   139.56578947368419       -80.000000000000000     
   139.57236842105263       -80.000000000000000     
   139.57894736842104       -80.000000000000000     
   139.58552631578945       -80.000000000000014     
   139.59210526315789       -80.000000000000000     
   139.59868421052630       -80.000000000000000     
   139.60526315789471       -80.000000000000000     
   139.61184210526315       -80.000000000000014     
   139.61842105263156       -80.000000000000014     
   139.62500000000000       -80.000000000000000     
   139.63157894736841       -80.000000000000000     
   139.63815789473682       -80.000000000000000     
   139.64473684210526       -80.000000000000000     
   139.65131578947367       -80.000000000000000     
   139.65789473684208       -80.000000000000000     
   139.66447368421052       -79.999999999999986     
   139.67105263157893       -80.000000000000000     
   139.67763157894734       -79.999999999999986     
   139.68421052631578       -79.999999999999986     
   139.69078947368419       -80.000000000000000     
   139.69736842105263       -80.000000000000000     
   139.70394736842104       -80.000000000000000     
   139.71052631578945       -80.000000000000014     
   139.71710526315789       -80.000000000000014     
   139.72368421052630       -80.000000000000000     
   139.73026315789471       -80.000000000000000     
   139.73684210526315       -80.000000000000000     
   139.74342105263156       -80.000000000000000     
   139.75000000000000       -79.999999999999986     
   139.75657894736841       -80.000000000000000     
   139.76315789473682       -80.000000000000000     
   139.76973684210526       -80.000000000000014     
   139.77631578947367       -80.000000000000014     
   139.78289473684208       -80.000000000000000     
   139.78947368421052       -80.000000000000000     
   139.79605263157893       -80.000000000000000     
   139.80263157894734       -80.000000000000000     
   139.80921052631578       -80.000000000000000     
   139.81578947368419       -80.000000000000000     
   139.82236842105263       -80.000000000000000     
   139.82894736842104       -80.000000000000000     
   139.83552631578945       -80.000000000000014     
   139.84210526315789       -80.000000000000000     
   139.84868421052630       -80.000000000000014     
   139.85526315789471       -80.000000000000000     
   139.86184210526315       -80.000000000000000     
   139.86842105263156       -80.000000000000000     
   139.87500000000000       -80.000000000000000     
   139.88157894736841       -80.000000000000000     
   139.88815789473682       -80.000000000000000     
   139.89473684210526       -80.000000000000000     
   139.90131578947367       -80.000000000000000     
   139.90789473684208       -80.000000000000000     
   139.91447368421052       -80.000000000000014     
   139.92105263157893       -80.000000000000000     
   139.92763157894737       -80.000000000000000     
   139.93421052631578       -80.000000000000014     
   139.94078947368419       -79.999999999999986     
   139.94736842105263       -80.000000000000014     
   139.95394736842104       -80.000000000000000     
   139.96052631578945       -80.000000000000000     
   139.96710526315789       -80.000000000000014     
   139.97368421052630       -80.000000000000000     
   139.98026315789471       -80.000000000000000     
   139.98684210526315       -80.000000000000000     
   139.99342105263156       -80.000000000000000     
   140.00000000000000       -79.999999999999986     
>
