   0.0000000000000000        1.3000000000001819     
   1.1235387984384353        1.3000000000001821     
   2.2470775968768706        1.3000000000001819     
   3.3706163953153054        1.3000000000001817     
   4.4941551937537412        1.3000000000001819     
   5.6176939921921765        1.3000000000001819     
   6.7412327906306109        1.3000000000001819     
   7.8647715890690462        1.3000000000001821     
   8.9883103875074823        1.3000000000001819     
   10.111849185945918        1.3000000000001817     
   11.235387984384353        1.3000000000001821     
   12.358926782822788        1.3000000000001819     
   13.482465581261222        1.3000000000001819     
   14.606004379699657        1.3000000000001817     
   15.729543178138092        1.3000000000001817     
   16.853081976576526        1.3000000000001819     
   17.976620775014965        1.3000000000001821     
   19.100159573453400        1.3000000000001817     
   20.223698371891835        1.3000000000001817     
   21.347237170330267        1.3000000000001819     
   22.470775968768706        1.3000000000001819     
   23.594314767207141        1.3000000000001819     
   24.717853565645576        1.3000000000001819     
   25.841392364084008        1.3000000000001817     
   26.964931162522443        1.3000000000001819     
   28.088469960960882        1.3000000000001817     
   29.212008759399314        1.3000000000001819     
   30.335547557837749        1.3000000000001819     
   31.459086356276185        1.3000000000001819     
   32.582625154714620        1.3000000000001819     
   33.706163953153052        1.3000000000001819     
   34.829702751591491        1.3000000000001817     
   35.953241550029929        1.3000000000001821     
   37.076780348468361        1.3000000000001821     
   38.200319146906800        1.3000000000001819     
   39.323857945345232        1.3000000000001819     
   40.447396743783671        1.3000000000001819     
   41.570935542222102        1.3000000000001817     
   42.694474340660534        1.3000000000001821     
   43.818013139098973        1.3000000000001815     
   44.941551937537412        1.3000000000001821     
   46.065090735975843        1.3000000000001817     
   47.188629534414282        1.3000000000001821     
   48.312168332852714        1.3000000000001819     
   49.435707131291153        1.3000000000001817     
   50.559245929729585        1.3000000000001819     
   51.682784728168016        1.3000000000001819     
   52.806323526606455        1.3000000000001821     
   53.929862325044887        1.3000000000001821     
   55.053401123483326        1.3000000000001817     
   56.176939921921765        1.3000000000001819     
   57.300478720360196        1.3000000000001819     
   58.424017518798628        1.3000000000001819     
   59.547556317237067        1.3000000000001821     
   60.671095115675499        1.3000000000001819     
   61.794633914113938        1.3000000000001817     
   62.918172712552369        1.3000000000001819     
   64.041711510990808        1.3000000000001819     
   65.165250309429240        1.3000000000001815     
   66.288789107867686        1.3000000000001819     
   67.412327906306103        1.3000000000001821     
   68.535866704744549        1.3000000000001819     
   69.659405503182981        1.3000000000001817     
   70.782944301621413        1.3000000000001819     
   71.906483100059859        1.3000000000001819     
   73.030021898498291        1.3000000000001819     
   74.153560696936722        1.3000000000001817     
   75.277099495375168        1.3000000000001817     
   76.400638293813600        1.3000000000001821     
   77.524177092252017        1.3000000000001819     
   78.647715890690463        1.3000000000001819     
   79.771254689128895        1.3000000000001819     
   80.894793487567341        1.3000000000001817     
   82.018332286005773        1.3000000000001823     
   83.141871084444205        1.3000000000001819     
   84.265409882882651        1.3000000000001819     
   85.388948681321068        1.3000000000001817     
   86.512487479759500        1.3000000000001819     
   87.636026278197946        1.3000000000001819     
   88.759565076636378        1.3000000000001819     
   89.883103875074823        1.3000000000001819     
   91.006642673513255        1.3000000000001817     
   92.130181471951687        1.3000000000001821     
   93.253720270390133        1.3000000000001819     
   94.377259068828565        1.3000000000001819     
   95.500797867266982        1.3000000000001817     
   96.624336665705428        1.3000000000001821     
   97.747875464143860        1.3000000000001819     
   98.871414262582306        1.3000000000001819     
   99.994953061020738        1.3000000000001817     
   101.11849185945917        1.3000000000001821     
   102.24203065789762        1.3000000000001817     
   103.36556945633603        1.3000000000001821     
   104.48910825477446        1.3000000000001819     
   105.61264705321291        1.3000000000001819     
   106.73618585165134        1.3000000000001819     
   107.85972465008977        1.3000000000001821     
   108.98326344852822        1.3000000000001821     
   110.10680224696665        1.3000000000001819     
   111.23034104540510        1.3000000000001817     
   112.35387984384353        1.3000000000001821     
   113.47741864228195        1.3000000000001821     
   114.60095744072039        1.3000000000001817     
   115.72449623915882        1.3000000000001817     
   116.84803503759726        1.3000000000001817     
   117.97157383603570        1.3000000000001823     
   119.09511263447413        1.3000000000001819     
   120.21865143291258        1.3000000000001819     
   121.34219023135100        1.3000000000001819     
   122.46572902978943        1.3000000000001819     
   123.58926782822788        1.3000000000001819     
   124.71280662666631        1.3000000000001817     
   125.83634542510474        1.3000000000001817     
   126.95988422354318        1.3000000000001819     
   128.08342302198162        1.3000000000001817     
   129.20696182042005        1.3000000000001821     
   130.33050061885848        1.3000000000001819     
   131.45403941729691        1.3000000000001819     
   132.57757821573537        1.3000000000001817     
   133.70111701417378        1.3000000000001819     
   134.82465581261221        1.3000000000001817     
   135.94819461105067        1.3000000000001819     
   137.07173340948910        1.3000000000001819     
   138.19527220792753        1.3000000000001815     
   139.31881100636596        1.3000000000001819     
   140.44234980480442        1.3000000000001819     
   141.56588860324283        1.3000000000001819     
   142.68942740168129        1.3000000000001819     
   143.81296620011972        1.3000000000001819     
   144.93650499855812        1.3000000000001817     
   146.06004379699658        1.3000000000001819     
   147.18358259543501        1.3000000000001819     
   148.30712139387344        1.3000000000001819     
   149.43066019231188        1.3000000000001817     
   150.55419899075034        1.3000000000001819     
   151.67773778918874        1.3000000000001819     
   152.80127658762720        1.3000000000001819     
   153.92481538606563        1.3000000000001819     
   155.04835418450403        1.3000000000001819     
   156.17189298294250        1.3000000000001817     
   157.29543178138093        1.3000000000001817     
   158.41897057981939        1.3000000000001821     
   159.54250937825779        1.3000000000001821     
   160.66604817669625        1.3000000000001819     
   161.78958697513468        1.3000000000001819     
   162.91312577357309        1.3000000000001819     
   164.03666457201155        1.3000000000001821     
   165.16020337044998        1.3000000000001821     
   166.28374216888841        1.3000000000001819     
   167.40728096732684        1.3000000000001819     
   168.53081976576530        1.3000000000001819     
   169.65435856420370        1.3000000000001819     
   170.77789736264214        1.3000000000001819     
   171.90143616108060        1.3000000000001819     
   173.02497495951900        1.3000000000001819     
   174.14851375795746        1.3000000000001821     
   175.27205255639589        1.3000000000001817     
   176.39559135483435        1.3000000000001819     
   177.51913015327276        1.3000000000001819     
   178.64266895171122        1.3000000000001819     
   179.76620775014965        1.3000000000001817     
   180.88974654858805        1.3000000000001821     
   182.01328534702651        1.3000000000001819     
   183.13682414546494        1.3000000000001821     
   184.26036294390337        1.3000000000001821     
   185.38390174234181        1.3000000000001819     
   186.50744054078027        1.3000000000001823     
   187.63097933921867        1.3000000000001817     
   188.75451813765713        1.3000000000001819     
   189.87805693609556        1.3000000000001821     
   191.00159573453396        1.3000000000001821     
   192.12513453297242        1.3000000000001819     
   193.24867333141086        1.3000000000001819     
   194.37221212984929        1.3000000000001815     
   195.49575092828772        1.3000000000001819     
   196.61928972672618        1.3000000000001817     
   197.74282852516461        1.3000000000001821     
   198.86636732360301        1.3000000000001819     
   199.98990612204148        1.3000000000001817     
   201.11344492047991        1.3000000000001821     
   202.23698371891834        1.3000000000001821     
   203.36052251735677        1.3000000000001819     
   204.48406131579523        1.3000000000001821     
   205.60760011423363        1.3000000000001819     
   206.73113891267207        1.3000000000001817     
   207.85467771111053        1.3000000000001819     
   208.97821650954893        1.3000000000001819     
   210.10175530798739        1.3000000000001821     
   211.22529410642582        1.3000000000001819     
   212.34883290486425        1.3000000000001819     
   213.47237170330268        1.3000000000001819     
   214.59591050174114        1.3000000000001819     
   215.71944930017955        1.3000000000001819     
   216.84298809861798        1.3000000000001819     
   217.96652689705644        1.3000000000001817     
   219.09006569549487        1.3000000000001815     
   220.21360449393330        1.3000000000001823     
   221.33714329237174        1.3000000000001819     
   222.46068209081020        1.3000000000001817     
   223.58422088924860        1.3000000000001819     
   224.70775968768706        1.3000000000001819     
   225.83129848612549        1.3000000000001819     
   226.95483728456389        1.3000000000001817     
   228.07837608300235        1.3000000000001817     
   229.20191488144079        1.3000000000001817     
   230.32545367987922        1.3000000000001815     
   231.44899247831765        1.3000000000001821     
   232.57253127675611        1.3000000000001817     
   233.69607007519451        1.3000000000001815     
   234.81960887363294        1.3000000000001817     
   235.94314767207140        1.3000000000001817     
   237.06668647050981        1.3000000000001817     
   238.19022526894827        1.3000000000001819     
   239.31376406738670        1.3000000000001819     
   240.43730286582516        1.3000000000001821     
   241.56084166426356        1.3000000000001817     
   242.68438046270199        1.3000000000001817     
   243.80791926114046        1.3000000000001819     
   244.93145805957886        1.3000000000001817     
   246.05499685801732        1.3000000000001817     
   247.17853565645575        1.3000000000001821     
   248.30207445489418        1.3000000000001819     
   249.42561325333261        1.3000000000001819     
   250.54915205177107        1.3000000000001821     
   251.67269085020948        1.3000000000001817     
   252.79622964864791        1.3000000000001819     
   253.91976844708637        1.3000000000001821     
   255.04330724552477        1.3000000000001819     
   256.16684604396323        1.3000000000001819     
   257.29038484240164        1.3000000000001819     
   258.41392364084010        1.3000000000001817     
   259.53746243927856        1.3000000000001817     
   260.66100123771696        1.3000000000001817     
   261.78454003615542        1.3000000000001817     
   262.90807883459382        1.3000000000001819     
   264.03161763303223        1.3000000000001819     
   265.15515643147074        1.3000000000001821     
   266.27869522990915        1.3000000000001821     
   267.40223402834755        1.3000000000001819     
   268.52577282678601        1.3000000000001817     
   269.64931162522441        1.3000000000001819     
   270.77285042366293        1.3000000000001821     
   271.89638922210133        1.3000000000001815     
   273.01992802053974        1.3000000000001821     
   274.14346681897820        1.3000000000001819     
   275.26700561741666        1.3000000000001817     
   276.39054441585506        1.3000000000001817     
   277.51408321429352        1.3000000000001819     
   278.63762201273192        1.3000000000001817     
   279.76116081117033        1.3000000000001819     
   280.88469960960884        1.3000000000001817     
   282.00823840804725        1.3000000000001815     
   283.13177720648565        1.3000000000001821     
   284.25531600492411        1.3000000000001819     
   285.37885480336257        1.3000000000001817     
   286.50239360180097        1.3000000000001817     
   287.62593240023944        1.3000000000001819     
   288.74947119867784        1.3000000000001819     
   289.87300999711624        1.3000000000001815     
   290.99654879555476        1.3000000000001823     
   292.12008759399316        1.3000000000001817     
   293.24362639243157        1.3000000000001821     
   294.36716519087003        1.3000000000001819     
   295.49070398930849        1.3000000000001821     
   296.61424278774689        1.3000000000001819     
   297.73778158618535        1.3000000000001819     
   298.86132038462375        1.3000000000001821     
   299.98485918306216        1.3000000000001817     
   301.10839798150067        1.3000000000001819     
   302.23193677993908        1.3000000000001819     
   303.35547557837748        1.3000000000001817     
   304.47901437681594        1.3000000000001819     
   305.60255317525440        1.3000000000001817     
   306.72609197369280        1.3000000000001819     
   307.84963077213126        1.3000000000001819     
   308.97316957056967        1.3000000000001817     
   310.09670836900807        1.3000000000001819     
   311.22024716744659        1.3000000000001819     
   312.34378596588499        1.3000000000001819     
   313.46732476432345        1.3000000000001819     
   314.59086356276185        1.3000000000001819     
   315.71440236120026        1.3000000000001819     
   316.83794115963877        1.3000000000001823     
   317.96147995807718        1.3000000000001819     
   319.08501875651558        1.3000000000001821     
   320.20855755495404        1.3000000000001817     
   321.33209635339250        1.3000000000001819     
   322.45563515183090        1.3000000000001821     
   323.57917395026936        1.3000000000001819     
   324.70271274870777        1.3000000000001819     
   325.82625154714617        1.3000000000001819     
   326.94979034558469        1.3000000000001819     
   328.07332914402309        1.3000000000001819     
   329.19686794246149        1.3000000000001819     
   330.32040674089995        1.3000000000001821     
   331.44394553933842        1.3000000000001817     
   332.56748433777682        1.3000000000001817     
   333.69102313621528        1.3000000000001821     
   334.81456193465368        1.3000000000001815     
   335.93810073309209        1.3000000000001817     
   337.06163953153060        1.3000000000001817     
   338.18517832996901        1.3000000000001819     
   339.30871712840741        1.3000000000001817     
   340.43225592684587        1.3000000000001819     
   341.55579472528427        1.3000000000001817     
   342.67933352372273        1.3000000000001821     
   343.80287232216119        1.3000000000001817     
   344.92641112059960        1.3000000000001819     
   346.04994991903800        1.3000000000001819     
   347.17348871747652        1.3000000000001817     
   348.29702751591492        1.3000000000001819     
   349.42056631435332        1.3000000000001821     
   350.54410511279178        1.3000000000001821     
   351.66764391123019        1.3000000000001817     
   352.79118270966870        1.3000000000001819     
   353.91472150810711        1.3000000000001819     
   355.03826030654551        1.3000000000001819     
   356.16179910498397        1.3000000000001819     
   357.28533790342243        1.3000000000001817     
   358.40887670186083        1.3000000000001817     
   359.53241550029929        1.3000000000001817     
   360.65595429873770        1.3000000000001815     
   361.77949309717610        1.3000000000001819     
   362.90303189561462        1.3000000000001819     
   364.02657069405302        1.3000000000001817     
   365.15010949249142        1.3000000000001819     
   366.27364829092988        1.3000000000001819     
   367.39718708936834        1.3000000000001819     
   368.52072588780675        1.3000000000001821     
   369.64426468624521        1.3000000000001817     
   370.76780348468361        1.3000000000001819     
   371.89134228312201        1.3000000000001821     
   373.01488108156053        1.3000000000001819     
   374.13841987999893        1.3000000000001819     
   375.26195867843734        1.3000000000001819     
   376.38549747687580        1.3000000000001821     
   377.50903627531426        1.3000000000001819     
   378.63257507375266        1.3000000000001817     
   379.75611387219112        1.3000000000001819     
   380.87965267062953        1.3000000000001819     
   382.00319146906793        1.3000000000001817     
   383.12673026750645        1.3000000000001819     
   384.25026906594485        1.3000000000001819     
   385.37380786438325        1.3000000000001817     
   386.49734666282171        1.3000000000001821     
   387.62088546126012        1.3000000000001817     
   388.74442425969858        1.3000000000001819     
   389.86796305813704        1.3000000000001819     
   390.99150185657544        1.3000000000001819     
   392.11504065501384        1.3000000000001819     
   393.23857945345236        1.3000000000001819     
   394.36211825189076        1.3000000000001821     
   395.48565705032922        1.3000000000001819     
   396.60919584876763        1.3000000000001819     
   397.73273464720603        1.3000000000001819     
   398.85627344564455        1.3000000000001819     
   399.97981224408295        1.3000000000001819     
   401.10335104252135        1.3000000000001819     
   402.22688984095981        1.3000000000001819     
   403.35042863939827        1.3000000000001819     
   404.47396743783668        1.3000000000001817     
   405.59750623627514        1.3000000000001821     
   406.72104503471354        1.3000000000001819     
   407.84458383315194        1.3000000000001821     
   408.96812263159046        1.3000000000001819     
   410.09166143002886        1.3000000000001819     
   411.21520022846727        1.3000000000001819     
   412.33873902690573        1.3000000000001819     
   413.46227782534413        1.3000000000001817     
   414.58581662378259        1.3000000000001819     
   415.70935542222105        1.3000000000001817     
   416.83289422065945        1.3000000000001817     
   417.95643301909786        1.3000000000001819     
   419.07997181753638        1.3000000000001819     
   420.20351061597478        1.3000000000001817     
   421.32704941441318        1.3000000000001817     
   422.45058821285164        1.3000000000001819     
   423.57412701129005        1.3000000000001819     
   424.69766580972851        1.3000000000001819     
   425.82120460816697        1.3000000000001819     
   426.94474340660537        1.3000000000001819     
   428.06828220504377        1.3000000000001817     
   429.19182100348229        1.3000000000001819     
   430.31535980192069        1.3000000000001819     
   431.43889860035910        1.3000000000001819     
   432.56243739879756        1.3000000000001819     
   433.68597619723596        1.3000000000001817     
   434.80951499567448        1.3000000000001819     
   435.93305379411288        1.3000000000001819     
   437.05659259255128        1.3000000000001819     
   438.18013139098974        1.3000000000001817     
   439.30367018942820        1.3000000000001819     
   440.42720898786661        1.3000000000001819     
   441.55074778630507        1.3000000000001819     
   442.67428658474347        1.3000000000001819     
   443.79782538318187        1.3000000000001819     
   444.92136418162039        1.3000000000001817     
   446.04490298005879        1.3000000000001821     
   447.16844177849720        1.3000000000001821     
   448.29198057693566        1.3000000000001819     
   449.41551937537412        1.3000000000001821     
   450.53905817381252        1.3000000000001817     
   451.66259697225098        1.3000000000001819     
   452.78613577068938        1.3000000000001819     
   453.90967456912779        1.3000000000001817     
   455.03321336756630        1.3000000000001817     
   456.15675216600471        1.3000000000001819     
   457.28029096444311        1.3000000000001819     
   458.40382976288157        1.3000000000001819     
   459.52736856131997        1.3000000000001819     
   460.65090735975843        1.3000000000001821     
   461.77444615819689        1.3000000000001817     
   462.89798495663530        1.3000000000001821     
   464.02152375507370        1.3000000000001821     
   465.14506255351222        1.3000000000001819     
   466.26860135195062        1.3000000000001817     
   467.39214015038903        1.3000000000001819     
   468.51567894882749        1.3000000000001819     
   469.63921774726589        1.3000000000001819     
   470.76275654570435        1.3000000000001817     
   471.88629534414281        1.3000000000001819     
   473.00983414258121        1.3000000000001817     
   474.13337294101962        1.3000000000001823     
   475.25691173945813        1.3000000000001819     
   476.38045053789654        1.3000000000001821     
   477.50398933633500        1.3000000000001819     
   478.62752813477340        1.3000000000001821     
   479.75106693321180        1.3000000000001821     
   480.87460573165032        1.3000000000001817     
   481.99814453008872        1.3000000000001819     
   483.12168332852713        1.3000000000001821     
   484.24522212696559        1.3000000000001819     
   485.36876092540399        1.3000000000001819     
   486.49229972384245        1.3000000000001819     
   487.61583852228091        1.3000000000001817     
   488.73937732071931        1.3000000000001819     
   489.86291611915772        1.3000000000001817     
   490.98645491759623        1.3000000000001819     
   492.10999371603464        1.3000000000001821     
   493.23353251447304        1.3000000000001819     
   494.35707131291150        1.3000000000001819     
   495.48061011134990        1.3000000000001819     
   496.60414890978836        1.3000000000001821     
   497.72768770822682        1.3000000000001821     
   498.85122650666523        1.3000000000001817     
   499.97476530510363        1.3000000000001819     
   501.09830410354215        1.3000000000001819     
   502.22184290198055        1.3000000000001821     
   503.34538170041895        1.3000000000001821     
   504.46892049885741        1.3000000000001817     
   505.59245929729582        1.3000000000001817     
   506.71599809573428        1.3000000000001819     
   507.83953689417274        1.3000000000001819     
   508.96307569261114        1.3000000000001821     
   510.08661449104954        1.3000000000001817     
   511.21015328948806        1.3000000000001821     
   512.33369208792647        1.3000000000001815     
   513.45723088636487        1.3000000000001817     
   514.58076968480327        1.3000000000001819     
   515.70430848324179        1.3000000000001821     
   516.82784728168019        1.3000000000001821     
   517.95138608011860        1.3000000000001819     
   519.07492487855711        1.3000000000001819     
   520.19846367699552        1.3000000000001819     
   521.32200247543392        1.3000000000001817     
   522.44554127387244        1.3000000000001817     
   523.56908007231084        1.3000000000001819     
   524.69261887074924        1.3000000000001817     
   525.81615766918765        1.3000000000001817     
   526.93969646762605        1.3000000000001819     
   528.06323526606445        1.3000000000001819     
   529.18677406450308        1.3000000000001821     
   530.31031286294149        1.3000000000001821     
   531.43385166137989        1.3000000000001817     
   532.55739045981829        1.3000000000001819     
   533.68092925825670        1.3000000000001819     
   534.80446805669510        1.3000000000001819     
   535.92800685513362        1.3000000000001817     
   537.05154565357202        1.3000000000001821     
   538.17508445201042        1.3000000000001817     
   539.29862325044883        1.3000000000001817     
   540.42216204888734        1.3000000000001819     
   541.54570084732586        1.3000000000001819     
   542.66923964576426        1.3000000000001819     
   543.79277844420267        1.3000000000001819     
   544.91631724264107        1.3000000000001819     
   546.03985604107947        1.3000000000001817     
   547.16339483951788        1.3000000000001819     
   548.28693363795639        1.3000000000001819     
   549.41047243639480        1.3000000000001815     
   550.53401123483332        1.3000000000001819     
   551.65755003327172        1.3000000000001819     
   552.78108883171012        1.3000000000001821     
   553.90462763014852        1.3000000000001819     
   555.02816642858704        1.3000000000001817     
   556.15170522702545        1.3000000000001819     
   557.27524402546385        1.3000000000001819     
   558.39878282390225        1.3000000000001821     
   559.52232162234066        1.3000000000001819     
   560.64586042077917        1.3000000000001819     
>
   0.0000000000000000       -29.000000000000000     
   1.1235387984384353       -29.000000000000004     
   2.2470775968768706       -29.000000000000000     
   3.3706163953153054       -29.000000000000000     
   4.4941551937537412       -29.000000000000000     
   5.6176939921921765       -29.000000000000000     
   6.7412327906306109       -29.000000000000000     
   7.8647715890690462       -29.000000000000007     
   8.9883103875074823       -28.999999999999996     
   10.111849185945918       -29.000000000000000     
   11.235387984384353       -29.000000000000000     
   12.358926782822788       -29.000000000000004     
   13.482465581261222       -29.000000000000000     
   14.606004379699657       -28.999999999999996     
   15.729543178138092       -29.000000000000004     
   16.853081976576526       -29.000000000000000     
   17.976620775014965       -28.999999999999996     
   19.100159573453400       -28.999999999999996     
   20.223698371891835       -28.999999999999993     
   21.347237170330267       -29.000000000000004     
   22.470775968768706       -29.000000000000007     
   23.594314767207141       -29.000000000000000     
   24.717853565645576       -29.000000000000000     
   25.841392364084008       -28.999999999999996     
   26.964931162522443       -28.999999999999996     
   28.088469960960882       -28.999999999999996     
   29.212008759399314       -29.000000000000000     
   30.335547557837749       -29.000000000000000     
   31.459086356276185       -29.000000000000000     
   32.582625154714620       -29.000000000000004     
   33.706163953153052       -29.000000000000000     
   34.829702751591491       -28.999999999999996     
   35.953241550029929       -29.000000000000004     
   37.076780348468361       -28.999999999999996     
   38.200319146906800       -29.000000000000000     
   39.323857945345232       -29.000000000000000     
   40.447396743783671       -29.000000000000000     
   41.570935542222102       -28.999999999999996     
   42.694474340660534       -29.000000000000004     
   43.818013139098973       -28.999999999999993     
   44.941551937537412       -29.000000000000004     
   46.065090735975843       -28.999999999999996     
   47.188629534414282       -29.000000000000000     
   48.312168332852714       -29.000000000000000     
   49.435707131291153       -29.000000000000000     
   50.559245929729585       -29.000000000000000     
   51.682784728168016       -29.000000000000000     
   52.806323526606455       -28.999999999999996     
   53.929862325044887       -29.000000000000000     
   55.053401123483326       -29.000000000000000     
   56.176939921921765       -29.000000000000004     
   57.300478720360196       -29.000000000000000     
   58.424017518798628       -28.999999999999993     
   59.547556317237067       -29.000000000000000     
   60.671095115675499       -29.000000000000007     
   61.794633914113938       -28.999999999999993     
   62.918172712552369       -29.000000000000000     
   64.041711510990808       -29.000000000000004     
   65.165250309429240       -29.000000000000000     
   66.288789107867686       -29.000000000000004     
   67.412327906306103       -28.999999999999993     
   68.535866704744549       -28.999999999999996     
   69.659405503182981       -29.000000000000000     
   70.782944301621413       -29.000000000000007     
   71.906483100059859       -29.000000000000000     
   73.030021898498291       -29.000000000000000     
   74.153560696936722       -29.000000000000004     
   75.277099495375168       -28.999999999999996     
   76.400638293813600       -29.000000000000004     
   77.524177092252017       -29.000000000000000     
   78.647715890690463       -29.000000000000000     
   79.771254689128895       -28.999999999999996     
   80.894793487567341       -28.999999999999993     
   82.018332286005773       -29.000000000000000     
   83.141871084444205       -28.999999999999996     
   84.265409882882651       -29.000000000000004     
   85.388948681321068       -28.999999999999996     
   86.512487479759500       -29.000000000000000     
   87.636026278197946       -29.000000000000004     
   88.759565076636378       -29.000000000000000     
   89.883103875074823       -29.000000000000004     
   91.006642673513255       -29.000000000000000     
   92.130181471951687       -29.000000000000004     
   93.253720270390133       -28.999999999999996     
   94.377259068828565       -28.999999999999993     
   95.500797867266982       -28.999999999999996     
   96.624336665705428       -29.000000000000007     
   97.747875464143860       -28.999999999999996     
   98.871414262582306       -29.000000000000000     
   99.994953061020738       -29.000000000000000     
   101.11849185945917       -28.999999999999996     
   102.24203065789762       -28.999999999999996     
   103.36556945633603       -29.000000000000000     
   104.48910825477446       -28.999999999999996     
   105.61264705321291       -28.999999999999996     
   106.73618585165134       -28.999999999999996     
   107.85972465008977       -29.000000000000000     
   108.98326344852822       -28.999999999999996     
   110.10680224696665       -28.999999999999996     
   111.23034104540510       -29.000000000000000     
   112.35387984384353       -29.000000000000004     
   113.47741864228195       -29.000000000000000     
   114.60095744072039       -29.000000000000000     
   115.72449623915882       -28.999999999999996     
   116.84803503759726       -28.999999999999996     
   117.97157383603570       -28.999999999999996     
   119.09511263447413       -29.000000000000000     
   120.21865143291258       -28.999999999999996     
   121.34219023135100       -29.000000000000000     
   122.46572902978943       -28.999999999999993     
   123.58926782822788       -29.000000000000000     
   124.71280662666631       -28.999999999999989     
   125.83634542510474       -28.999999999999993     
   126.95988422354318       -29.000000000000004     
   128.08342302198162       -29.000000000000007     
   129.20696182042005       -28.999999999999996     
   130.33050061885848       -29.000000000000000     
   131.45403941729691       -29.000000000000000     
   132.57757821573537       -29.000000000000000     
   133.70111701417378       -28.999999999999996     
   134.82465581261221       -29.000000000000004     
   135.94819461105067       -29.000000000000004     
   137.07173340948910       -29.000000000000000     
   138.19527220792753       -28.999999999999996     
   139.31881100636596       -29.000000000000000     
   140.44234980480442       -28.999999999999996     
   141.56588860324283       -29.000000000000000     
   142.68942740168129       -29.000000000000000     
   143.81296620011972       -28.999999999999996     
   144.93650499855812       -28.999999999999996     
   146.06004379699658       -29.000000000000000     
   147.18358259543501       -29.000000000000000     
   148.30712139387344       -29.000000000000004     
   149.43066019231188       -29.000000000000000     
   150.55419899075034       -29.000000000000004     
   151.67773778918874       -29.000000000000004     
   152.80127658762720       -29.000000000000007     
   153.92481538606563       -29.000000000000000     
   155.04835418450403       -29.000000000000000     
   156.17189298294250       -28.999999999999996     
   157.29543178138093       -29.000000000000004     
   158.41897057981939       -28.999999999999996     
   159.54250937825779       -29.000000000000000     
   160.66604817669625       -29.000000000000007     
   161.78958697513468       -28.999999999999996     
   162.91312577357309       -29.000000000000000     
   164.03666457201155       -29.000000000000007     
   165.16020337044998       -28.999999999999996     
   166.28374216888841       -29.000000000000000     
   167.40728096732684       -28.999999999999996     
   168.53081976576530       -29.000000000000000     
   169.65435856420370       -29.000000000000004     
   170.77789736264214       -29.000000000000000     
   171.90143616108060       -29.000000000000000     
   173.02497495951900       -28.999999999999996     
   174.14851375795746       -29.000000000000004     
   175.27205255639589       -29.000000000000000     
   176.39559135483435       -29.000000000000004     
   177.51913015327276       -29.000000000000000     
   178.64266895171122       -29.000000000000000     
   179.76620775014965       -28.999999999999996     
   180.88974654858805       -29.000000000000004     
   182.01328534702651       -28.999999999999996     
   183.13682414546494       -28.999999999999993     
   184.26036294390337       -29.000000000000007     
   185.38390174234181       -29.000000000000000     
   186.50744054078027       -29.000000000000004     
   187.63097933921867       -28.999999999999993     
   188.75451813765713       -28.999999999999993     
   189.87805693609556       -28.999999999999996     
   191.00159573453396       -29.000000000000000     
   192.12513453297242       -29.000000000000000     
   193.24867333141086       -28.999999999999996     
   194.37221212984929       -28.999999999999996     
   195.49575092828772       -29.000000000000000     
   196.61928972672618       -29.000000000000000     
   197.74282852516461       -29.000000000000000     
   198.86636732360301       -29.000000000000000     
   199.98990612204148       -29.000000000000000     
   201.11344492047991       -29.000000000000000     
   202.23698371891834       -29.000000000000000     
   203.36052251735677       -28.999999999999996     
   204.48406131579523       -28.999999999999993     
   205.60760011423363       -29.000000000000000     
   206.73113891267207       -29.000000000000004     
   207.85467771111053       -29.000000000000000     
   208.97821650954893       -28.999999999999993     
   210.10175530798739       -29.000000000000000     
   211.22529410642582       -29.000000000000000     
   212.34883290486425       -29.000000000000000     
   213.47237170330268       -29.000000000000004     
   214.59591050174114       -29.000000000000004     
   215.71944930017955       -29.000000000000004     
   216.84298809861798       -28.999999999999996     
   217.96652689705644       -29.000000000000000     
   219.09006569549487       -28.999999999999996     
   220.21360449393330       -29.000000000000000     
   221.33714329237174       -29.000000000000000     
   222.46068209081020       -28.999999999999996     
   223.58422088924860       -29.000000000000000     
   224.70775968768706       -28.999999999999996     
   225.83129848612549       -28.999999999999996     
   226.95483728456389       -28.999999999999996     
   228.07837608300235       -28.999999999999996     
   229.20191488144079       -29.000000000000000     
   230.32545367987922       -29.000000000000000     
   231.44899247831765       -28.999999999999996     
   232.57253127675611       -29.000000000000000     
   233.69607007519451       -28.999999999999996     
   234.81960887363294       -28.999999999999996     
   235.94314767207140       -29.000000000000000     
   237.06668647050981       -29.000000000000000     
   238.19022526894827       -29.000000000000004     
   239.31376406738670       -29.000000000000000     
   240.43730286582516       -29.000000000000000     
   241.56084166426356       -28.999999999999996     
   242.68438046270199       -29.000000000000000     
   243.80791926114046       -29.000000000000004     
   244.93145805957886       -29.000000000000000     
   246.05499685801732       -29.000000000000004     
   247.17853565645575       -29.000000000000004     
   248.30207445489418       -29.000000000000000     
   249.42561325333261       -29.000000000000004     
   250.54915205177107       -29.000000000000004     
   251.67269085020948       -28.999999999999996     
   252.79622964864791       -29.000000000000007     
   253.91976844708637       -29.000000000000007     
   255.04330724552477       -29.000000000000004     
   256.16684604396323       -28.999999999999996     
   257.29038484240164       -29.000000000000000     
   258.41392364084010       -29.000000000000000     
   259.53746243927856       -28.999999999999996     
   260.66100123771696       -28.999999999999989     
   261.78454003615542       -28.999999999999993     
   262.90807883459382       -29.000000000000000     
   264.03161763303223       -28.999999999999996     
   265.15515643147074       -29.000000000000000     
   266.27869522990915       -29.000000000000000     
   267.40223402834755       -29.000000000000000     
   268.52577282678601       -29.000000000000000     
   269.64931162522441       -28.999999999999993     
   270.77285042366293       -29.000000000000007     
   271.89638922210133       -29.000000000000000     
   273.01992802053974       -29.000000000000004     
   274.14346681897820       -29.000000000000000     
   275.26700561741666       -29.000000000000000     
   276.39054441585506       -28.999999999999996     
   277.51408321429352       -29.000000000000007     
   278.63762201273192       -28.999999999999996     
   279.76116081117033       -29.000000000000000     
   280.88469960960884       -28.999999999999993     
   282.00823840804725       -28.999999999999996     
   283.13177720648565       -29.000000000000000     
   284.25531600492411       -29.000000000000000     
   285.37885480336257       -29.000000000000000     
   286.50239360180097       -29.000000000000000     
   287.62593240023944       -29.000000000000000     
   288.74947119867784       -29.000000000000004     
   289.87300999711624       -28.999999999999996     
   290.99654879555476       -29.000000000000000     
   292.12008759399316       -28.999999999999996     
   293.24362639243157       -29.000000000000007     
   294.36716519087003       -29.000000000000000     
   295.49070398930849       -28.999999999999996     
   296.61424278774689       -29.000000000000000     
   297.73778158618535       -28.999999999999996     
   298.86132038462375       -28.999999999999996     
   299.98485918306216       -28.999999999999996     
   301.10839798150067       -29.000000000000004     
   302.23193677993908       -29.000000000000000     
   303.35547557837748       -29.000000000000000     
   304.47901437681594       -28.999999999999996     
   305.60255317525440       -28.999999999999993     
   306.72609197369280       -29.000000000000004     
   307.84963077213126       -29.000000000000004     
   308.97316957056967       -28.999999999999996     
   310.09670836900807       -28.999999999999996     
   311.22024716744659       -29.000000000000000     
   312.34378596588499       -29.000000000000004     
   313.46732476432345       -29.000000000000000     
   314.59086356276185       -28.999999999999996     
   315.71440236120026       -29.000000000000000     
   316.83794115963877       -29.000000000000004     
   317.96147995807718       -28.999999999999996     
   319.08501875651558       -29.000000000000007     
   320.20855755495404       -28.999999999999996     
   321.33209635339250       -28.999999999999996     
   322.45563515183090       -29.000000000000004     
   323.57917395026936       -29.000000000000000     
   324.70271274870777       -28.999999999999996     
   325.82625154714617       -29.000000000000000     
   326.94979034558469       -29.000000000000000     
   328.07332914402309       -29.000000000000004     
   329.19686794246149       -29.000000000000000     
   330.32040674089995       -29.000000000000000     
   331.44394553933842       -29.000000000000004     
   332.56748433777682       -28.999999999999993     
   333.69102313621528       -29.000000000000004     
   334.81456193465368       -28.999999999999996     
   335.93810073309209       -28.999999999999996     
   337.06163953153060       -29.000000000000000     
   338.18517832996901       -29.000000000000004     
   339.30871712840741       -29.000000000000000     
   340.43225592684587       -29.000000000000000     
   341.55579472528427       -29.000000000000004     
   342.67933352372273       -29.000000000000004     
   343.80287232216119       -28.999999999999996     
   344.92641112059960       -29.000000000000004     
   346.04994991903800       -29.000000000000004     
   347.17348871747652       -29.000000000000000     
   348.29702751591492       -29.000000000000000     
   349.42056631435332       -29.000000000000004     
   350.54410511279178       -29.000000000000004     
   351.66764391123019       -28.999999999999996     
   352.79118270966870       -28.999999999999996     
   353.91472150810711       -28.999999999999996     
   355.03826030654551       -29.000000000000000     
   356.16179910498397       -28.999999999999996     
   357.28533790342243       -29.000000000000000     
   358.40887670186083       -29.000000000000000     
   359.53241550029929       -28.999999999999996     
   360.65595429873770       -29.000000000000000     
   361.77949309717610       -28.999999999999993     
   362.90303189561462       -29.000000000000000     
   364.02657069405302       -29.000000000000004     
   365.15010949249142       -29.000000000000000     
   366.27364829092988       -29.000000000000000     
   367.39718708936834       -28.999999999999996     
   368.52072588780675       -29.000000000000004     
   369.64426468624521       -28.999999999999996     
   370.76780348468361       -29.000000000000000     
   371.89134228312201       -29.000000000000000     
   373.01488108156053       -29.000000000000000     
   374.13841987999893       -29.000000000000004     
   375.26195867843734       -29.000000000000000     
   376.38549747687580       -29.000000000000000     
   377.50903627531426       -28.999999999999996     
   378.63257507375266       -29.000000000000000     
   379.75611387219112       -28.999999999999996     
   380.87965267062953       -29.000000000000000     
   382.00319146906793       -29.000000000000000     
   383.12673026750645       -29.000000000000004     
   384.25026906594485       -29.000000000000000     
   385.37380786438325       -28.999999999999996     
   386.49734666282171       -28.999999999999996     
   387.62088546126012       -28.999999999999993     
   388.74442425969858       -29.000000000000004     
   389.86796305813704       -28.999999999999996     
   390.99150185657544       -28.999999999999996     
   392.11504065501384       -29.000000000000000     
   393.23857945345236       -28.999999999999996     
   394.36211825189076       -29.000000000000004     
   395.48565705032922       -29.000000000000000     
   396.60919584876763       -29.000000000000000     
   397.73273464720603       -29.000000000000000     
   398.85627344564455       -29.000000000000000     
   399.97981224408295       -29.000000000000007     
   401.10335104252135       -29.000000000000004     
   402.22688984095981       -29.000000000000000     
   403.35042863939827       -29.000000000000000     
   404.47396743783668       -29.000000000000004     
   405.59750623627514       -29.000000000000004     
   406.72104503471354       -29.000000000000004     
   407.84458383315194       -29.000000000000007     
   408.96812263159046       -29.000000000000004     
   410.09166143002886       -29.000000000000004     
   411.21520022846727       -28.999999999999996     
   412.33873902690573       -29.000000000000004     
   413.46227782534413       -28.999999999999996     
   414.58581662378259       -29.000000000000004     
   415.70935542222105       -29.000000000000000     
   416.83289422065945       -29.000000000000000     
   417.95643301909786       -29.000000000000000     
   419.07997181753638       -29.000000000000000     
   420.20351061597478       -28.999999999999993     
   421.32704941441318       -29.000000000000000     
   422.45058821285164       -28.999999999999996     
   423.57412701129005       -29.000000000000004     
   424.69766580972851       -28.999999999999993     
   425.82120460816697       -28.999999999999996     
   426.94474340660537       -29.000000000000004     
   428.06828220504377       -28.999999999999993     
   429.19182100348229       -28.999999999999993     
   430.31535980192069       -29.000000000000000     
   431.43889860035910       -29.000000000000000     
   432.56243739879756       -29.000000000000004     
   433.68597619723596       -28.999999999999996     
   434.80951499567448       -29.000000000000004     
   435.93305379411288       -29.000000000000007     
   437.05659259255128       -29.000000000000004     
   438.18013139098974       -28.999999999999989     
   439.30367018942820       -29.000000000000004     
   440.42720898786661       -29.000000000000004     
   441.55074778630507       -29.000000000000000     
   442.67428658474347       -29.000000000000000     
   443.79782538318187       -29.000000000000000     
   444.92136418162039       -29.000000000000004     
   446.04490298005879       -29.000000000000000     
   447.16844177849720       -29.000000000000004     
   448.29198057693566       -29.000000000000000     
   449.41551937537412       -29.000000000000000     
   450.53905817381252       -29.000000000000000     
   451.66259697225098       -28.999999999999996     
   452.78613577068938       -28.999999999999996     
   453.90967456912779       -29.000000000000000     
   455.03321336756630       -29.000000000000000     
   456.15675216600471       -29.000000000000004     
   457.28029096444311       -29.000000000000000     
   458.40382976288157       -28.999999999999996     
   459.52736856131997       -29.000000000000000     
   460.65090735975843       -29.000000000000007     
   461.77444615819689       -28.999999999999996     
   462.89798495663530       -29.000000000000004     
   464.02152375507370       -29.000000000000004     
   465.14506255351222       -28.999999999999996     
   466.26860135195062       -28.999999999999996     
   467.39214015038903       -29.000000000000000     
   468.51567894882749       -29.000000000000004     
   469.63921774726589       -29.000000000000004     
   470.76275654570435       -29.000000000000000     
   471.88629534414281       -29.000000000000004     
   473.00983414258121       -28.999999999999996     
   474.13337294101962       -29.000000000000011     
   475.25691173945813       -29.000000000000000     
   476.38045053789654       -29.000000000000004     
   477.50398933633500       -29.000000000000000     
   478.62752813477340       -29.000000000000004     
   479.75106693321180       -29.000000000000000     
   480.87460573165032       -28.999999999999996     
   481.99814453008872       -28.999999999999996     
   483.12168332852713       -29.000000000000004     
   484.24522212696559       -28.999999999999993     
   485.36876092540399       -29.000000000000000     
   486.49229972384245       -29.000000000000004     
   487.61583852228091       -29.000000000000000     
   488.73937732071931       -29.000000000000000     
   489.86291611915772       -29.000000000000000     
   490.98645491759623       -29.000000000000000     
   492.10999371603464       -29.000000000000000     
   493.23353251447304       -29.000000000000000     
   494.35707131291150       -29.000000000000004     
   495.48061011134990       -29.000000000000000     
   496.60414890978836       -29.000000000000000     
   497.72768770822682       -29.000000000000004     
   498.85122650666523       -29.000000000000000     
   499.97476530510363       -29.000000000000000     
   501.09830410354215       -29.000000000000000     
   502.22184290198055       -29.000000000000000     
   503.34538170041895       -29.000000000000000     
   504.46892049885741       -28.999999999999996     
   505.59245929729582       -29.000000000000000     
   506.71599809573428       -29.000000000000007     
   507.83953689417274       -29.000000000000004     
   508.96307569261114       -29.000000000000004     
   510.08661449104954       -29.000000000000000     
   511.21015328948806       -29.000000000000004     
   512.33369208792647       -28.999999999999996     
   513.45723088636487       -28.999999999999993     
   514.58076968480327       -28.999999999999996     
   515.70430848324179       -29.000000000000000     
   516.82784728168019       -29.000000000000000     
   517.95138608011860       -28.999999999999993     
   519.07492487855711       -29.000000000000004     
   520.19846367699552       -29.000000000000004     
   521.32200247543392       -28.999999999999996     
   522.44554127387244       -29.000000000000000     
   523.56908007231084       -28.999999999999996     
   524.69261887074924       -28.999999999999996     
   525.81615766918765       -28.999999999999996     
   526.93969646762605       -29.000000000000004     
   528.06323526606445       -28.999999999999993     
   529.18677406450308       -29.000000000000004     
   530.31031286294149       -29.000000000000000     
   531.43385166137989       -29.000000000000000     
   532.55739045981829       -29.000000000000004     
   533.68092925825670       -29.000000000000000     
   534.80446805669510       -28.999999999999996     
   535.92800685513362       -29.000000000000000     
   537.05154565357202       -28.999999999999996     
   538.17508445201042       -28.999999999999996     
   539.29862325044883       -29.000000000000000     
   540.42216204888734       -29.000000000000000     
   541.54570084732586       -29.000000000000000     
   542.66923964576426       -29.000000000000000     
   543.79277844420267       -29.000000000000004     
   544.91631724264107       -29.000000000000000     
   546.03985604107947       -28.999999999999996     
   547.16339483951788       -28.999999999999996     
   548.28693363795639       -29.000000000000000     
   549.41047243639480       -28.999999999999996     
   550.53401123483332       -28.999999999999996     
   551.65755003327172       -28.999999999999996     
   552.78108883171012       -29.000000000000004     
   553.90462763014852       -29.000000000000004     
   555.02816642858704       -29.000000000000004     
   556.15170522702545       -29.000000000000000     
   557.27524402546385       -29.000000000000004     
   558.39878282390225       -29.000000000000000     
   559.52232162234066       -29.000000000000000     
   560.64586042077917       -28.999999999999993     
>
   0.0000000000000000       -188.00000000000000     
   1.1235387984384353       -188.00000000000003     
   2.2470775968768706       -187.99999999999994     
   3.3706163953153054       -188.00000000000003     
   4.4941551937537412       -188.00000000000000     
   5.6176939921921765       -187.99999999999997     
   6.7412327906306109       -188.00000000000000     
   7.8647715890690462       -188.00000000000006     
   8.9883103875074823       -188.00000000000000     
   10.111849185945918       -188.00000000000000     
   11.235387984384353       -188.00000000000000     
   12.358926782822788       -188.00000000000003     
   13.482465581261222       -188.00000000000003     
   14.606004379699657       -187.99999999999997     
   15.729543178138092       -187.99999999999997     
   16.853081976576526       -188.00000000000000     
   17.976620775014965       -188.00000000000000     
   19.100159573453400       -188.00000000000000     
   20.223698371891835       -188.00000000000000     
   21.347237170330267       -188.00000000000000     
   22.470775968768706       -188.00000000000000     
   23.594314767207141       -187.99999999999997     
   24.717853565645576       -188.00000000000000     
   25.841392364084008       -188.00000000000000     
   26.964931162522443       -187.99999999999997     
   28.088469960960882       -187.99999999999994     
   29.212008759399314       -187.99999999999997     
   30.335547557837749       -187.99999999999997     
   31.459086356276185       -187.99999999999997     
   32.582625154714620       -188.00000000000000     
   33.706163953153052       -188.00000000000000     
   34.829702751591491       -187.99999999999997     
   35.953241550029929       -188.00000000000006     
   37.076780348468361       -188.00000000000003     
   38.200319146906800       -187.99999999999997     
   39.323857945345232       -188.00000000000000     
   40.447396743783671       -188.00000000000000     
   41.570935542222102       -187.99999999999997     
   42.694474340660534       -187.99999999999997     
   43.818013139098973       -187.99999999999997     
   44.941551937537412       -187.99999999999997     
   46.065090735975843       -188.00000000000000     
   47.188629534414282       -188.00000000000000     
   48.312168332852714       -188.00000000000000     
   49.435707131291153       -187.99999999999997     
   50.559245929729585       -188.00000000000000     
   51.682784728168016       -188.00000000000000     
   52.806323526606455       -188.00000000000000     
   53.929862325044887       -188.00000000000003     
   55.053401123483326       -188.00000000000000     
   56.176939921921765       -188.00000000000000     
   57.300478720360196       -188.00000000000000     
   58.424017518798628       -188.00000000000000     
   59.547556317237067       -188.00000000000000     
   60.671095115675499       -188.00000000000000     
   61.794633914113938       -187.99999999999994     
   62.918172712552369       -188.00000000000000     
   64.041711510990808       -187.99999999999997     
   65.165250309429240       -187.99999999999997     
   66.288789107867686       -188.00000000000003     
   67.412327906306103       -188.00000000000003     
   68.535866704744549       -188.00000000000000     
   69.659405503182981       -188.00000000000000     
   70.782944301621413       -188.00000000000006     
   71.906483100059859       -188.00000000000000     
   73.030021898498291       -188.00000000000000     
   74.153560696936722       -188.00000000000003     
   75.277099495375168       -187.99999999999994     
   76.400638293813600       -188.00000000000003     
   77.524177092252017       -188.00000000000003     
   78.647715890690463       -188.00000000000003     
   79.771254689128895       -187.99999999999994     
   80.894793487567341       -187.99999999999997     
   82.018332286005773       -188.00000000000003     
   83.141871084444205       -188.00000000000000     
   84.265409882882651       -188.00000000000006     
   85.388948681321068       -188.00000000000000     
   86.512487479759500       -188.00000000000000     
   87.636026278197946       -187.99999999999997     
   88.759565076636378       -188.00000000000003     
   89.883103875074823       -188.00000000000003     
   91.006642673513255       -187.99999999999997     
   92.130181471951687       -187.99999999999997     
   93.253720270390133       -187.99999999999997     
   94.377259068828565       -188.00000000000000     
   95.500797867266982       -188.00000000000000     
   96.624336665705428       -188.00000000000003     
   97.747875464143860       -188.00000000000000     
   98.871414262582306       -187.99999999999997     
   99.994953061020738       -187.99999999999997     
   101.11849185945917       -188.00000000000000     
   102.24203065789762       -188.00000000000000     
   103.36556945633603       -188.00000000000003     
   104.48910825477446       -188.00000000000000     
   105.61264705321291       -188.00000000000000     
   106.73618585165134       -188.00000000000000     
   107.85972465008977       -188.00000000000000     
   108.98326344852822       -188.00000000000000     
   110.10680224696665       -188.00000000000003     
   111.23034104540510       -188.00000000000000     
   112.35387984384353       -188.00000000000000     
   113.47741864228195       -188.00000000000000     
   114.60095744072039       -188.00000000000000     
   115.72449623915882       -188.00000000000000     
   116.84803503759726       -188.00000000000000     
   117.97157383603570       -188.00000000000003     
   119.09511263447413       -188.00000000000000     
   120.21865143291258       -187.99999999999997     
   121.34219023135100       -188.00000000000003     
   122.46572902978943       -188.00000000000003     
   123.58926782822788       -187.99999999999997     
   124.71280662666631       -188.00000000000000     
   125.83634542510474       -188.00000000000000     
   126.95988422354318       -188.00000000000000     
   128.08342302198162       -188.00000000000003     
   129.20696182042005       -188.00000000000000     
   130.33050061885848       -188.00000000000000     
   131.45403941729691       -188.00000000000000     
   132.57757821573537       -187.99999999999997     
   133.70111701417378       -188.00000000000003     
   134.82465581261221       -188.00000000000000     
   135.94819461105067       -188.00000000000003     
   137.07173340948910       -188.00000000000000     
   138.19527220792753       -188.00000000000000     
   139.31881100636596       -188.00000000000000     
   140.44234980480442       -188.00000000000000     
   141.56588860324283       -188.00000000000000     
   142.68942740168129       -188.00000000000003     
   143.81296620011972       -187.99999999999997     
   144.93650499855812       -187.99999999999997     
   146.06004379699658       -188.00000000000003     
   147.18358259543501       -187.99999999999997     
   148.30712139387344       -188.00000000000000     
   149.43066019231188       -188.00000000000000     
   150.55419899075034       -188.00000000000003     
   151.67773778918874       -188.00000000000000     
   152.80127658762720       -188.00000000000000     
   153.92481538606563       -187.99999999999994     
   155.04835418450403       -188.00000000000003     
   156.17189298294250       -188.00000000000000     
   157.29543178138093       -188.00000000000003     
   158.41897057981939       -187.99999999999997     
   159.54250937825779       -188.00000000000003     
   160.66604817669625       -188.00000000000006     
   161.78958697513468       -188.00000000000000     
   162.91312577357309       -187.99999999999994     
   164.03666457201155       -188.00000000000003     
   165.16020337044998       -187.99999999999997     
   166.28374216888841       -188.00000000000003     
   167.40728096732684       -188.00000000000000     
   168.53081976576530       -188.00000000000000     
   169.65435856420370       -188.00000000000000     
   170.77789736264214       -187.99999999999997     
   171.90143616108060       -188.00000000000000     
   173.02497495951900       -187.99999999999997     
   174.14851375795746       -188.00000000000000     
   175.27205255639589       -187.99999999999997     
   176.39559135483435       -188.00000000000000     
   177.51913015327276       -188.00000000000000     
   178.64266895171122       -188.00000000000003     
   179.76620775014965       -187.99999999999997     
   180.88974654858805       -188.00000000000003     
   182.01328534702651       -187.99999999999997     
   183.13682414546494       -187.99999999999997     
   184.26036294390337       -188.00000000000003     
   185.38390174234181       -188.00000000000003     
   186.50744054078027       -188.00000000000006     
   187.63097933921867       -187.99999999999994     
   188.75451813765713       -187.99999999999997     
   189.87805693609556       -188.00000000000000     
   191.00159573453396       -188.00000000000000     
   192.12513453297242       -188.00000000000000     
   193.24867333141086       -188.00000000000000     
   194.37221212984929       -187.99999999999997     
   195.49575092828772       -188.00000000000000     
   196.61928972672618       -188.00000000000000     
   197.74282852516461       -188.00000000000000     
   198.86636732360301       -188.00000000000000     
   199.98990612204148       -187.99999999999997     
   201.11344492047991       -188.00000000000003     
   202.23698371891834       -187.99999999999997     
   203.36052251735677       -188.00000000000000     
   204.48406131579523       -188.00000000000000     
   205.60760011423363       -187.99999999999997     
   206.73113891267207       -188.00000000000000     
   207.85467771111053       -188.00000000000000     
   208.97821650954893       -187.99999999999994     
   210.10175530798739       -188.00000000000000     
   211.22529410642582       -188.00000000000000     
   212.34883290486425       -187.99999999999997     
   213.47237170330268       -188.00000000000000     
   214.59591050174114       -188.00000000000006     
   215.71944930017955       -188.00000000000000     
   216.84298809861798       -188.00000000000000     
   217.96652689705644       -187.99999999999997     
   219.09006569549487       -188.00000000000000     
   220.21360449393330       -188.00000000000003     
   221.33714329237174       -188.00000000000000     
   222.46068209081020       -187.99999999999997     
   223.58422088924860       -187.99999999999997     
   224.70775968768706       -188.00000000000000     
   225.83129848612549       -188.00000000000003     
   226.95483728456389       -188.00000000000000     
   228.07837608300235       -188.00000000000003     
   229.20191488144079       -187.99999999999997     
   230.32545367987922       -188.00000000000003     
   231.44899247831765       -188.00000000000000     
   232.57253127675611       -187.99999999999997     
   233.69607007519451       -187.99999999999997     
   234.81960887363294       -188.00000000000000     
   235.94314767207140       -187.99999999999997     
   237.06668647050981       -188.00000000000000     
   238.19022526894827       -187.99999999999997     
   239.31376406738670       -187.99999999999997     
   240.43730286582516       -188.00000000000000     
   241.56084166426356       -188.00000000000000     
   242.68438046270199       -187.99999999999997     
   243.80791926114046       -187.99999999999997     
   244.93145805957886       -188.00000000000000     
   246.05499685801732       -188.00000000000003     
   247.17853565645575       -188.00000000000000     
   248.30207445489418       -188.00000000000000     
   249.42561325333261       -188.00000000000000     
   250.54915205177107       -188.00000000000006     
   251.67269085020948       -188.00000000000000     
   252.79622964864791       -187.99999999999997     
   253.91976844708637       -188.00000000000000     
   255.04330724552477       -188.00000000000000     
   256.16684604396323       -188.00000000000000     
   257.29038484240164       -188.00000000000003     
   258.41392364084010       -187.99999999999997     
   259.53746243927856       -188.00000000000003     
   260.66100123771696       -187.99999999999994     
   261.78454003615542       -187.99999999999997     
   262.90807883459382       -187.99999999999997     
   264.03161763303223       -187.99999999999997     
   265.15515643147074       -188.00000000000000     
   266.27869522990915       -187.99999999999997     
   267.40223402834755       -187.99999999999997     
   268.52577282678601       -188.00000000000000     
   269.64931162522441       -188.00000000000000     
   270.77285042366293       -188.00000000000000     
   271.89638922210133       -188.00000000000000     
   273.01992802053974       -187.99999999999997     
   274.14346681897820       -188.00000000000003     
   275.26700561741666       -188.00000000000003     
   276.39054441585506       -187.99999999999997     
   277.51408321429352       -188.00000000000000     
   278.63762201273192       -187.99999999999997     
   279.76116081117033       -187.99999999999997     
   280.88469960960884       -188.00000000000000     
   282.00823840804725       -187.99999999999997     
   283.13177720648565       -188.00000000000000     
   284.25531600492411       -188.00000000000000     
   285.37885480336257       -188.00000000000000     
   286.50239360180097       -188.00000000000003     
   287.62593240023944       -188.00000000000000     
   288.74947119867784       -187.99999999999997     
   289.87300999711624       -187.99999999999997     
   290.99654879555476       -188.00000000000000     
   292.12008759399316       -187.99999999999997     
   293.24362639243157       -188.00000000000000     
   294.36716519087003       -188.00000000000000     
   295.49070398930849       -187.99999999999997     
   296.61424278774689       -188.00000000000000     
   297.73778158618535       -188.00000000000000     
   298.86132038462375       -188.00000000000000     
   299.98485918306216       -188.00000000000000     
   301.10839798150067       -188.00000000000000     
   302.23193677993908       -187.99999999999997     
   303.35547557837748       -188.00000000000000     
   304.47901437681594       -188.00000000000000     
   305.60255317525440       -187.99999999999997     
   306.72609197369280       -188.00000000000003     
   307.84963077213126       -187.99999999999997     
   308.97316957056967       -187.99999999999997     
   310.09670836900807       -187.99999999999997     
   311.22024716744659       -188.00000000000003     
   312.34378596588499       -188.00000000000000     
   313.46732476432345       -187.99999999999997     
   314.59086356276185       -187.99999999999997     
   315.71440236120026       -188.00000000000000     
   316.83794115963877       -188.00000000000000     
   317.96147995807718       -188.00000000000000     
   319.08501875651558       -188.00000000000000     
   320.20855755495404       -188.00000000000000     
   321.33209635339250       -187.99999999999994     
   322.45563515183090       -188.00000000000003     
   323.57917395026936       -188.00000000000003     
   324.70271274870777       -187.99999999999997     
   325.82625154714617       -188.00000000000000     
   326.94979034558469       -187.99999999999997     
   328.07332914402309       -188.00000000000003     
   329.19686794246149       -188.00000000000000     
   330.32040674089995       -188.00000000000000     
   331.44394553933842       -188.00000000000000     
   332.56748433777682       -187.99999999999997     
   333.69102313621528       -188.00000000000000     
   334.81456193465368       -188.00000000000003     
   335.93810073309209       -188.00000000000000     
   337.06163953153060       -187.99999999999997     
   338.18517832996901       -188.00000000000000     
   339.30871712840741       -188.00000000000000     
   340.43225592684587       -187.99999999999997     
   341.55579472528427       -188.00000000000003     
   342.67933352372273       -188.00000000000000     
   343.80287232216119       -187.99999999999997     
   344.92641112059960       -188.00000000000003     
   346.04994991903800       -188.00000000000000     
   347.17348871747652       -188.00000000000000     
   348.29702751591492       -188.00000000000000     
   349.42056631435332       -188.00000000000003     
   350.54410511279178       -188.00000000000003     
   351.66764391123019       -187.99999999999997     
   352.79118270966870       -187.99999999999997     
   353.91472150810711       -187.99999999999997     
   355.03826030654551       -188.00000000000000     
   356.16179910498397       -188.00000000000000     
   357.28533790342243       -188.00000000000000     
   358.40887670186083       -188.00000000000000     
   359.53241550029929       -188.00000000000000     
   360.65595429873770       -187.99999999999994     
   361.77949309717610       -188.00000000000000     
   362.90303189561462       -188.00000000000000     
   364.02657069405302       -188.00000000000000     
   365.15010949249142       -188.00000000000003     
   366.27364829092988       -188.00000000000000     
   367.39718708936834       -188.00000000000000     
   368.52072588780675       -188.00000000000006     
   369.64426468624521       -187.99999999999997     
   370.76780348468361       -188.00000000000006     
   371.89134228312201       -188.00000000000003     
   373.01488108156053       -187.99999999999997     
   374.13841987999893       -188.00000000000000     
   375.26195867843734       -187.99999999999997     
   376.38549747687580       -188.00000000000003     
   377.50903627531426       -188.00000000000000     
   378.63257507375266       -187.99999999999997     
   379.75611387219112       -188.00000000000000     
   380.87965267062953       -188.00000000000003     
   382.00319146906793       -188.00000000000000     
   383.12673026750645       -188.00000000000003     
   384.25026906594485       -188.00000000000003     
   385.37380786438325       -188.00000000000000     
   386.49734666282171       -188.00000000000003     
   387.62088546126012       -188.00000000000000     
   388.74442425969858       -187.99999999999997     
   389.86796305813704       -188.00000000000000     
   390.99150185657544       -188.00000000000000     
   392.11504065501384       -188.00000000000006     
   393.23857945345236       -188.00000000000000     
   394.36211825189076       -188.00000000000000     
   395.48565705032922       -187.99999999999997     
   396.60919584876763       -188.00000000000000     
   397.73273464720603       -187.99999999999997     
   398.85627344564455       -188.00000000000000     
   399.97981224408295       -188.00000000000003     
   401.10335104252135       -188.00000000000000     
   402.22688984095981       -187.99999999999997     
   403.35042863939827       -188.00000000000000     
   404.47396743783668       -188.00000000000000     
   405.59750623627514       -188.00000000000000     
   406.72104503471354       -188.00000000000000     
   407.84458383315194       -188.00000000000000     
   408.96812263159046       -188.00000000000000     
   410.09166143002886       -188.00000000000003     
   411.21520022846727       -188.00000000000000     
   412.33873902690573       -188.00000000000000     
   413.46227782534413       -187.99999999999997     
   414.58581662378259       -188.00000000000003     
   415.70935542222105       -187.99999999999997     
   416.83289422065945       -188.00000000000000     
   417.95643301909786       -187.99999999999997     
   419.07997181753638       -188.00000000000003     
   420.20351061597478       -187.99999999999997     
   421.32704941441318       -187.99999999999997     
   422.45058821285164       -188.00000000000000     
   423.57412701129005       -188.00000000000003     
   424.69766580972851       -187.99999999999997     
   425.82120460816697       -188.00000000000003     
   426.94474340660537       -188.00000000000000     
   428.06828220504377       -188.00000000000000     
   429.19182100348229       -188.00000000000003     
   430.31535980192069       -187.99999999999997     
   431.43889860035910       -187.99999999999997     
   432.56243739879756       -188.00000000000000     
   433.68597619723596       -188.00000000000000     
   434.80951499567448       -187.99999999999997     
   435.93305379411288       -188.00000000000003     
   437.05659259255128       -188.00000000000003     
   438.18013139098974       -187.99999999999997     
   439.30367018942820       -188.00000000000000     
   440.42720898786661       -188.00000000000000     
   441.55074778630507       -188.00000000000003     
   442.67428658474347       -188.00000000000000     
   443.79782538318187       -187.99999999999997     
   444.92136418162039       -188.00000000000000     
   446.04490298005879       -188.00000000000000     
   447.16844177849720       -188.00000000000006     
   448.29198057693566       -187.99999999999997     
   449.41551937537412       -188.00000000000000     
   450.53905817381252       -188.00000000000000     
   451.66259697225098       -188.00000000000000     
   452.78613577068938       -188.00000000000000     
   453.90967456912779       -188.00000000000003     
   455.03321336756630       -188.00000000000000     
   456.15675216600471       -188.00000000000000     
   457.28029096444311       -188.00000000000003     
   458.40382976288157       -188.00000000000000     
   459.52736856131997       -187.99999999999997     
   460.65090735975843       -188.00000000000003     
   461.77444615819689       -188.00000000000000     
   462.89798495663530       -188.00000000000000     
   464.02152375507370       -188.00000000000000     
   465.14506255351222       -187.99999999999997     
   466.26860135195062       -188.00000000000000     
   467.39214015038903       -187.99999999999997     
   468.51567894882749       -188.00000000000000     
   469.63921774726589       -188.00000000000003     
   470.76275654570435       -188.00000000000000     
   471.88629534414281       -188.00000000000000     
   473.00983414258121       -188.00000000000003     
   474.13337294101962       -188.00000000000003     
   475.25691173945813       -188.00000000000000     
   476.38045053789654       -188.00000000000006     
   477.50398933633500       -187.99999999999997     
   478.62752813477340       -188.00000000000000     
   479.75106693321180       -188.00000000000000     
   480.87460573165032       -187.99999999999997     
   481.99814453008872       -188.00000000000000     
   483.12168332852713       -188.00000000000000     
   484.24522212696559       -188.00000000000000     
   485.36876092540399       -188.00000000000003     
   486.49229972384245       -188.00000000000003     
   487.61583852228091       -187.99999999999997     
   488.73937732071931       -188.00000000000000     
   489.86291611915772       -187.99999999999997     
   490.98645491759623       -188.00000000000000     
   492.10999371603464       -188.00000000000003     
   493.23353251447304       -187.99999999999997     
   494.35707131291150       -188.00000000000006     
   495.48061011134990       -187.99999999999997     
   496.60414890978836       -187.99999999999997     
   497.72768770822682       -188.00000000000003     
   498.85122650666523       -187.99999999999997     
   499.97476530510363       -188.00000000000000     
   501.09830410354215       -187.99999999999994     
   502.22184290198055       -188.00000000000003     
   503.34538170041895       -188.00000000000000     
   504.46892049885741       -187.99999999999997     
   505.59245929729582       -188.00000000000003     
   506.71599809573428       -188.00000000000003     
   507.83953689417274       -187.99999999999994     
   508.96307569261114       -188.00000000000000     
   510.08661449104954       -187.99999999999997     
   511.21015328948806       -188.00000000000003     
   512.33369208792647       -187.99999999999997     
   513.45723088636487       -188.00000000000000     
   514.58076968480327       -188.00000000000000     
   515.70430848324179       -188.00000000000003     
   516.82784728168019       -188.00000000000000     
   517.95138608011860       -187.99999999999997     
   519.07492487855711       -188.00000000000000     
   520.19846367699552       -188.00000000000000     
   521.32200247543392       -188.00000000000000     
   522.44554127387244       -188.00000000000000     
   523.56908007231084       -188.00000000000000     
   524.69261887074924       -187.99999999999997     
   525.81615766918765       -187.99999999999997     
   526.93969646762605       -188.00000000000000     
   528.06323526606445       -187.99999999999997     
   529.18677406450308       -188.00000000000003     
   530.31031286294149       -188.00000000000000     
   531.43385166137989       -188.00000000000000     
   532.55739045981829       -188.00000000000000     
   533.68092925825670       -188.00000000000000     
   534.80446805669510       -188.00000000000000     
   535.92800685513362       -187.99999999999997     
   537.05154565357202       -188.00000000000003     
   538.17508445201042       -187.99999999999997     
   539.29862325044883       -187.99999999999997     
   540.42216204888734       -187.99999999999997     
   541.54570084732586       -188.00000000000000     
   542.66923964576426       -188.00000000000000     
   543.79277844420267       -188.00000000000003     
   544.91631724264107       -187.99999999999997     
   546.03985604107947       -188.00000000000000     
   547.16339483951788       -188.00000000000000     
   548.28693363795639       -188.00000000000003     
   549.41047243639480       -187.99999999999994     
   550.53401123483332       -187.99999999999997     
   551.65755003327172       -188.00000000000000     
   552.78108883171012       -188.00000000000003     
   553.90462763014852       -188.00000000000003     
   555.02816642858704       -188.00000000000000     
   556.15170522702545       -188.00000000000000     
   557.27524402546385       -188.00000000000000     
   558.39878282390225       -188.00000000000000     
   559.52232162234066       -188.00000000000000     
   560.64586042077917       -188.00000000000000     
>
