  -30.600000000000001        3.9999999999999991     
  -30.607586206896553        3.9999999999999996     
  -30.615172413793104        3.9999999999999996     
  -30.622758620689655        3.9999999999999996     
  -30.630344827586207        3.9999999999999996     
  -30.637931034482762        3.9999999999999996     
  -30.645517241379313        3.9999999999999996     
  -30.653103448275864        3.9999999999999996     
  -30.660689655172416        4.0000000000000018     
  -30.668275862068967        4.0000000000000018     
  -30.675862068965518        3.9999999999999996     
  -30.683448275862069        3.9999999999999996     
  -30.691034482758621        3.9999999999999996     
  -30.698620689655176        3.9999999999999996     
  -30.706206896551727        3.9999999999999996     
  -30.713793103448278        3.9999999999999996     
  -30.721379310344830        3.9999999999999991     
  -30.728965517241381        3.9999999999999991     
  -30.736551724137932        3.9999999999999996     
  -30.744137931034484        3.9999999999999996     
  -30.751724137931035        3.9999999999999996     
  -30.759310344827586        3.9999999999999996     
  -30.766896551724141        3.9999999999999991     
  -30.774482758620692        3.9999999999999987     
  -30.782068965517244        3.9999999999999996     
  -30.789655172413795        3.9999999999999996     
  -30.797241379310346        3.9999999999999996     
  -30.804827586206898        3.9999999999999996     
  -30.812413793103449        3.9999999999999996     
  -30.820000000000000        3.9999999999999996     
  -30.827586206896552        3.9999999999999996     
  -30.835172413793106        3.9999999999999996     
  -30.842758620689658        3.9999999999999996     
  -30.850344827586209        3.9999999999999996     
  -30.857931034482760        3.9999999999999996     
  -30.865517241379312        3.9999999999999996     
  -30.873103448275863        3.9999999999999996     
  -30.880689655172414        3.9999999999999996     
  -30.888275862068966        3.9999999999999996     
  -30.895862068965521        3.9999999999999996     
  -30.903448275862072        3.9999999999999996     
  -30.911034482758623        3.9999999999999996     
  -30.918620689655175        4.0000000000000018     
  -30.926206896551726        3.9999999999999996     
  -30.933793103448277        3.9999999999999996     
  -30.941379310344828        3.9999999999999991     
  -30.948965517241380        3.9999999999999996     
  -30.956551724137931        4.0000000000000018     
  -30.964137931034486        3.9999999999999991     
  -30.971724137931037        3.9999999999999996     
  -30.979310344827589        3.9999999999999991     
  -30.986896551724140        3.9999999999999996     
  -30.994482758620691        3.9999999999999996     
  -31.002068965517243        3.9999999999999996     
  -31.009655172413794        3.9999999999999991     
  -31.017241379310345        3.9999999999999996     
  -31.024827586206900        3.9999999999999996     
  -31.032413793103451        3.9999999999999996     
  -31.040000000000003        3.9999999999999996     
  -31.047586206896554        3.9999999999999996     
  -31.055172413793105        3.9999999999999991     
  -31.062758620689657        3.9999999999999996     
  -31.070344827586208        3.9999999999999991     
  -31.077931034482759        3.9999999999999996     
  -31.085517241379311        3.9999999999999996     
  -31.093103448275865        3.9999999999999996     
  -31.100689655172417        3.9999999999999996     
  -31.108275862068968        4.0000000000000018     
  -31.115862068965519        4.0000000000000018     
  -31.123448275862071        3.9999999999999996     
  -31.131034482758622        3.9999999999999996     
  -31.138620689655173        3.9999999999999991     
  -31.146206896551725        4.0000000000000018     
  -31.153793103448280        3.9999999999999996     
  -31.161379310344831        3.9999999999999996     
  -31.168965517241382        3.9999999999999996     
  -31.176551724137934        4.0000000000000018     
  -31.184137931034485        3.9999999999999996     
  -31.191724137931036        3.9999999999999996     
  -31.199310344827587        3.9999999999999996     
  -31.206896551724139        3.9999999999999991     
  -31.214482758620690        3.9999999999999996     
  -31.222068965517245        3.9999999999999996     
  -31.229655172413796        3.9999999999999996     
  -31.237241379310348        3.9999999999999996     
  -31.244827586206899        3.9999999999999991     
  -31.252413793103450        3.9999999999999996     
  -31.260000000000002        3.9999999999999991     
  -31.267586206896553        4.0000000000000018     
  -31.275172413793104        3.9999999999999996     
  -31.282758620689656        3.9999999999999996     
  -31.290344827586210        4.0000000000000018     
  -31.297931034482762        3.9999999999999996     
  -31.305517241379313        3.9999999999999996     
  -31.313103448275864        3.9999999999999991     
  -31.320689655172416        3.9999999999999996     
  -31.328275862068967        3.9999999999999996     
  -31.335862068965518        3.9999999999999991     
  -31.343448275862070        3.9999999999999996     
  -31.351034482758624        3.9999999999999996     
  -31.358620689655176        3.9999999999999996     
  -31.366206896551727        3.9999999999999996     
  -31.373793103448278        4.0000000000000018     
  -31.381379310344830        3.9999999999999996     
  -31.388965517241381        3.9999999999999996     
  -31.396551724137932        3.9999999999999996     
  -31.404137931034484        3.9999999999999996     
  -31.411724137931035        3.9999999999999996     
  -31.419310344827590        3.9999999999999996     
  -31.426896551724141        4.0000000000000018     
  -31.434482758620693        3.9999999999999991     
  -31.442068965517244        3.9999999999999996     
  -31.449655172413795        3.9999999999999996     
  -31.457241379310346        3.9999999999999991     
  -31.464827586206898        3.9999999999999996     
  -31.472413793103449        3.9999999999999996     
  -31.480000000000004        4.0000000000000018     
  -31.487586206896555        3.9999999999999996     
  -31.495172413793107        3.9999999999999996     
  -31.502758620689658        3.9999999999999996     
  -31.510344827586209        3.9999999999999996     
  -31.517931034482761        3.9999999999999996     
  -31.525517241379312        3.9999999999999996     
  -31.533103448275863        3.9999999999999996     
  -31.540689655172415        3.9999999999999991     
  -31.548275862068969        4.0000000000000018     
  -31.555862068965521        3.9999999999999996     
  -31.563448275862072        3.9999999999999996     
  -31.571034482758623        3.9999999999999996     
  -31.578620689655175        3.9999999999999996     
  -31.586206896551726        3.9999999999999996     
  -31.593793103448277        3.9999999999999996     
  -31.601379310344829        3.9999999999999996     
  -31.608965517241380        3.9999999999999991     
  -31.616551724137935        3.9999999999999996     
  -31.624137931034486        3.9999999999999996     
  -31.631724137931037        3.9999999999999996     
  -31.639310344827589        3.9999999999999996     
  -31.646896551724140        3.9999999999999991     
  -31.654482758620691        3.9999999999999996     
  -31.662068965517243        3.9999999999999996     
  -31.669655172413794        4.0000000000000018     
  -31.677241379310349        4.0000000000000018     
  -31.684827586206900        3.9999999999999987     
  -31.692413793103452        3.9999999999999996     
  -31.700000000000003        3.9999999999999991     
  -31.707586206896554        3.9999999999999996     
  -31.715172413793105        3.9999999999999996     
  -31.722758620689657        3.9999999999999996     
  -31.730344827586208        3.9999999999999996     
  -31.737931034482759        3.9999999999999996     
  -31.745517241379314        3.9999999999999991     
  -31.753103448275866        3.9999999999999996     
  -31.760689655172417        3.9999999999999996     
  -31.768275862068968        3.9999999999999996     
  -31.775862068965520        3.9999999999999996     
  -31.783448275862071        3.9999999999999996     
  -31.791034482758622        3.9999999999999996     
  -31.798620689655174        3.9999999999999996     
  -31.806206896551728        3.9999999999999996     
  -31.813793103448280        3.9999999999999991     
  -31.821379310344831        3.9999999999999996     
  -31.828965517241382        3.9999999999999991     
  -31.836551724137934        3.9999999999999996     
  -31.844137931034485        3.9999999999999996     
  -31.851724137931036        3.9999999999999996     
  -31.859310344827588        3.9999999999999991     
  -31.866896551724139        3.9999999999999996     
  -31.874482758620694        3.9999999999999996     
  -31.882068965517245        3.9999999999999996     
  -31.889655172413796        4.0000000000000018     
  -31.897241379310348        4.0000000000000018     
  -31.904827586206899        3.9999999999999991     
  -31.912413793103450        3.9999999999999996     
  -31.920000000000002        3.9999999999999991     
  -31.927586206896553        3.9999999999999996     
  -31.935172413793104        3.9999999999999996     
  -31.942758620689659        4.0000000000000018     
  -31.950344827586211        3.9999999999999996     
  -31.957931034482762        3.9999999999999991     
  -31.965517241379313        3.9999999999999996     
  -31.973103448275864        3.9999999999999996     
  -31.980689655172416        3.9999999999999996     
  -31.988275862068967        3.9999999999999996     
  -31.995862068965518        3.9999999999999991     
  -32.003448275862070        3.9999999999999996     
  -32.011034482758625        3.9999999999999996     
  -32.018620689655172        3.9999999999999996     
  -32.026206896551727        3.9999999999999996     
  -32.033793103448275        3.9999999999999996     
  -32.041379310344830        3.9999999999999991     
  -32.048965517241385        4.0000000000000018     
  -32.056551724137933        3.9999999999999991     
  -32.064137931034487        3.9999999999999996     
  -32.071724137931035        3.9999999999999996     
  -32.079310344827590        3.9999999999999996     
  -32.086896551724138        3.9999999999999991     
  -32.094482758620693        3.9999999999999991     
  -32.102068965517248        3.9999999999999996     
  -32.109655172413795        3.9999999999999996     
  -32.117241379310350        3.9999999999999996     
  -32.124827586206898        3.9999999999999996     
  -32.132413793103453        3.9999999999999996     
  -32.140000000000001        3.9999999999999996     
  -32.147586206896555        3.9999999999999996     
  -32.155172413793103        3.9999999999999996     
  -32.162758620689658        3.9999999999999996     
  -32.170344827586213        3.9999999999999991     
  -32.177931034482761        3.9999999999999996     
  -32.185517241379316        3.9999999999999996     
  -32.193103448275863        3.9999999999999996     
  -32.200689655172418        3.9999999999999996     
  -32.208275862068966        3.9999999999999996     
  -32.215862068965521        3.9999999999999991     
  -32.223448275862069        3.9999999999999996     
  -32.231034482758623        3.9999999999999991     
  -32.238620689655178        3.9999999999999996     
  -32.246206896551726        3.9999999999999996     
  -32.253793103448281        3.9999999999999996     
  -32.261379310344829        3.9999999999999991     
  -32.268965517241384        3.9999999999999996     
  -32.276551724137931        3.9999999999999996     
  -32.284137931034486        3.9999999999999991     
  -32.291724137931041        3.9999999999999996     
  -32.299310344827589        4.0000000000000018     
  -32.306896551724144        3.9999999999999996     
  -32.314482758620692        3.9999999999999991     
  -32.322068965517246        4.0000000000000018     
  -32.329655172413794        3.9999999999999996     
  -32.337241379310349        3.9999999999999996     
  -32.344827586206897        3.9999999999999991     
  -32.352413793103452        3.9999999999999991     
  -32.359999999999999        3.9999999999999991     
  -32.367586206896554        3.9999999999999996     
  -32.375172413793109        3.9999999999999996     
  -32.382758620689657        3.9999999999999991     
  -32.390344827586212        3.9999999999999996     
  -32.397931034482760        3.9999999999999991     
  -32.405517241379314        3.9999999999999996     
  -32.413103448275862        4.0000000000000018     
  -32.420689655172417        3.9999999999999991     
  -32.428275862068972        3.9999999999999996     
  -32.435862068965520        3.9999999999999996     
  -32.443448275862075        3.9999999999999996     
  -32.451034482758622        3.9999999999999996     
  -32.458620689655177        3.9999999999999996     
  -32.466206896551725        3.9999999999999996     
  -32.473793103448280        3.9999999999999991     
  -32.481379310344828        3.9999999999999991     
  -32.488965517241382        3.9999999999999996     
  -32.496551724137937        3.9999999999999996     
  -32.504137931034485        3.9999999999999996     
  -32.511724137931040        3.9999999999999987     
  -32.519310344827588        3.9999999999999991     
  -32.526896551724143        3.9999999999999996     
  -32.534482758620690        3.9999999999999991     
  -32.542068965517245        3.9999999999999996     
  -32.549655172413793        3.9999999999999996     
  -32.557241379310348        3.9999999999999996     
  -32.564827586206903        3.9999999999999991     
  -32.572413793103451        3.9999999999999987     
  -32.580000000000005        3.9999999999999996     
  -32.587586206896553        3.9999999999999996     
  -32.595172413793108        3.9999999999999991     
  -32.602758620689656        3.9999999999999996     
  -32.610344827586211        3.9999999999999996     
  -32.617931034482766        3.9999999999999996     
  -32.625517241379313        3.9999999999999991     
  -32.633103448275868        3.9999999999999996     
  -32.640689655172416        3.9999999999999996     
  -32.648275862068971        4.0000000000000018     
  -32.655862068965519        3.9999999999999996     
  -32.663448275862073        3.9999999999999996     
  -32.671034482758621        3.9999999999999996     
  -32.678620689655176        3.9999999999999996     
  -32.686206896551724        3.9999999999999996     
  -32.693793103448279        4.0000000000000018     
  -32.701379310344834        3.9999999999999991     
  -32.708965517241381        3.9999999999999996     
  -32.716551724137936        3.9999999999999991     
  -32.724137931034484        3.9999999999999996     
  -32.731724137931039        3.9999999999999996     
  -32.739310344827587        3.9999999999999996     
  -32.746896551724141        3.9999999999999991     
  -32.754482758620696        3.9999999999999991     
  -32.762068965517244        3.9999999999999996     
  -32.769655172413799        3.9999999999999991     
  -32.777241379310347        3.9999999999999996     
  -32.784827586206902        3.9999999999999996     
  -32.792413793103449        4.0000000000000018     
  -32.800000000000004        3.9999999999999996     
  -32.807586206896552        3.9999999999999996     
  -32.815172413793107        3.9999999999999996     
  -32.822758620689662        3.9999999999999996     
  -32.830344827586210        3.9999999999999996     
  -32.837931034482764        3.9999999999999996     
  -32.845517241379312        3.9999999999999991     
  -32.853103448275867        3.9999999999999987     
  -32.860689655172415        3.9999999999999996     
  -32.868275862068970        3.9999999999999996     
  -32.875862068965517        3.9999999999999996     
  -32.883448275862072        4.0000000000000018     
  -32.891034482758627        3.9999999999999996     
  -32.898620689655175        4.0000000000000018     
  -32.906206896551730        3.9999999999999996     
  -32.913793103448278        3.9999999999999996     
  -32.921379310344832        3.9999999999999996     
  -32.928965517241380        3.9999999999999996     
  -32.936551724137935        3.9999999999999996     
  -32.944137931034490        3.9999999999999996     
  -32.951724137931038        3.9999999999999996     
  -32.959310344827593        3.9999999999999996     
  -32.966896551724140        4.0000000000000018     
  -32.974482758620695        3.9999999999999996     
  -32.982068965517243        3.9999999999999991     
  -32.989655172413798        3.9999999999999996     
  -32.997241379310346        3.9999999999999996     
  -33.004827586206900        3.9999999999999996     
  -33.012413793103448        3.9999999999999996     
  -33.020000000000003        3.9999999999999996     
  -33.027586206896558        3.9999999999999996     
  -33.035172413793106        3.9999999999999996     
  -33.042758620689661        4.0000000000000018     
  -33.050344827586208        3.9999999999999996     
  -33.057931034482763        4.0000000000000018     
  -33.065517241379311        3.9999999999999996     
  -33.073103448275866        3.9999999999999996     
  -33.080689655172421        3.9999999999999991     
  -33.088275862068969        3.9999999999999991     
  -33.095862068965523        4.0000000000000018     
  -33.103448275862071        3.9999999999999996     
  -33.111034482758626        3.9999999999999996     
  -33.118620689655174        3.9999999999999991     
  -33.126206896551729        3.9999999999999996     
  -33.133793103448276        3.9999999999999996     
  -33.141379310344831        4.0000000000000018     
  -33.148965517241386        3.9999999999999996     
  -33.156551724137934        3.9999999999999987     
  -33.164137931034489        3.9999999999999996     
  -33.171724137931037        3.9999999999999996     
  -33.179310344827591        3.9999999999999996     
  -33.186896551724139        3.9999999999999996     
  -33.194482758620694        3.9999999999999991     
  -33.202068965517242        3.9999999999999991     
  -33.209655172413797        3.9999999999999996     
  -33.217241379310352        3.9999999999999996     
  -33.224827586206899        3.9999999999999996     
  -33.232413793103454        3.9999999999999996     
  -33.240000000000002        3.9999999999999996     
  -33.247586206896557        4.0000000000000018     
  -33.255172413793105        3.9999999999999996     
  -33.262758620689659        3.9999999999999991     
  -33.270344827586214        3.9999999999999996     
  -33.277931034482762        3.9999999999999996     
  -33.285517241379317        3.9999999999999996     
  -33.293103448275865        3.9999999999999996     
  -33.300689655172420        3.9999999999999991     
  -33.308275862068967        3.9999999999999996     
  -33.315862068965522        3.9999999999999996     
  -33.323448275862070        3.9999999999999991     
  -33.331034482758625        3.9999999999999996     
  -33.338620689655173        3.9999999999999996     
  -33.346206896551728        3.9999999999999996     
  -33.353793103448282        3.9999999999999996     
  -33.361379310344830        3.9999999999999996     
  -33.368965517241385        3.9999999999999996     
  -33.376551724137933        3.9999999999999996     
  -33.384137931034488        3.9999999999999996     
  -33.391724137931035        3.9999999999999996     
  -33.399310344827590        3.9999999999999996     
  -33.406896551724145        3.9999999999999996     
  -33.414482758620693        3.9999999999999996     
  -33.422068965517248        3.9999999999999996     
  -33.429655172413796        3.9999999999999991     
  -33.437241379310350        3.9999999999999996     
  -33.444827586206898        3.9999999999999996     
  -33.452413793103453        3.9999999999999996     
  -33.460000000000001        3.9999999999999996     
  -33.467586206896556        3.9999999999999991     
  -33.475172413793111        3.9999999999999996     
  -33.482758620689658        3.9999999999999996     
  -33.490344827586213        3.9999999999999996     
  -33.497931034482761        3.9999999999999991     
  -33.505517241379316        3.9999999999999996     
  -33.513103448275864        3.9999999999999996     
  -33.520689655172418        3.9999999999999996     
  -33.528275862068966        3.9999999999999996     
  -33.535862068965521        3.9999999999999996     
  -33.543448275862076        3.9999999999999996     
  -33.551034482758624        3.9999999999999991     
  -33.558620689655179        3.9999999999999996     
  -33.566206896551726        3.9999999999999996     
  -33.573793103448281        3.9999999999999991     
  -33.581379310344829        3.9999999999999996     
  -33.588965517241384        3.9999999999999996     
  -33.596551724137939        3.9999999999999991     
  -33.604137931034487        3.9999999999999996     
  -33.611724137931041        3.9999999999999996     
  -33.619310344827589        4.0000000000000018     
  -33.626896551724144        3.9999999999999987     
  -33.634482758620692        3.9999999999999996     
  -33.642068965517247        3.9999999999999996     
  -33.649655172413794        3.9999999999999996     
  -33.657241379310349        3.9999999999999991     
  -33.664827586206897        3.9999999999999991     
  -33.672413793103452        3.9999999999999991     
  -33.680000000000007        3.9999999999999996     
  -33.687586206896555        3.9999999999999996     
  -33.695172413793109        3.9999999999999996     
  -33.702758620689657        3.9999999999999991     
  -33.710344827586212        3.9999999999999996     
  -33.717931034482760        3.9999999999999996     
  -33.725517241379315        3.9999999999999996     
  -33.733103448275870        3.9999999999999996     
  -33.740689655172417        3.9999999999999996     
  -33.748275862068972        3.9999999999999991     
  -33.755862068965520        3.9999999999999996     
  -33.763448275862075        3.9999999999999996     
  -33.771034482758623        3.9999999999999996     
  -33.778620689655178        3.9999999999999991     
  -33.786206896551725        3.9999999999999991     
  -33.793793103448280        3.9999999999999996     
  -33.801379310344835        3.9999999999999996     
  -33.808965517241383        3.9999999999999996     
  -33.816551724137938        3.9999999999999991     
  -33.824137931034485        3.9999999999999991     
  -33.831724137931040        3.9999999999999996     
  -33.839310344827588        3.9999999999999991     
  -33.846896551724143        3.9999999999999996     
  -33.854482758620691        4.0000000000000018     
  -33.862068965517246        3.9999999999999996     
  -33.869655172413800        3.9999999999999996     
  -33.877241379310348        3.9999999999999991     
  -33.884827586206903        3.9999999999999996     
  -33.892413793103451        3.9999999999999996     
  -33.900000000000006        3.9999999999999996     
  -33.907586206896553        3.9999999999999996     
  -33.915172413793108        3.9999999999999996     
  -33.922758620689663        3.9999999999999996     
  -33.930344827586211        4.0000000000000018     
  -33.937931034482766        3.9999999999999991     
  -33.945517241379314        3.9999999999999991     
  -33.953103448275868        3.9999999999999996     
  -33.960689655172416        3.9999999999999996     
  -33.968275862068971        3.9999999999999991     
  -33.975862068965519        3.9999999999999996     
  -33.983448275862074        3.9999999999999991     
  -33.991034482758621        3.9999999999999996     
  -33.998620689655176        3.9999999999999996     
  -34.006206896551731        3.9999999999999996     
  -34.013793103448279        3.9999999999999996     
  -34.021379310344834        3.9999999999999996     
  -34.028965517241382        3.9999999999999991     
  -34.036551724137937        3.9999999999999996     
  -34.044137931034484        3.9999999999999996     
  -34.051724137931039        3.9999999999999996     
  -34.059310344827594        3.9999999999999996     
  -34.066896551724142        3.9999999999999996     
  -34.074482758620697        3.9999999999999991     
  -34.082068965517244        3.9999999999999996     
  -34.089655172413799        3.9999999999999996     
  -34.097241379310347        3.9999999999999991     
  -34.104827586206902        3.9999999999999996     
  -34.112413793103450        3.9999999999999996     
  -34.120000000000005        3.9999999999999991     
  -34.127586206896559        3.9999999999999996     
  -34.135172413793107        3.9999999999999996     
  -34.142758620689662        3.9999999999999996     
  -34.150344827586210        3.9999999999999991     
  -34.157931034482765        3.9999999999999996     
  -34.165517241379312        3.9999999999999996     
  -34.173103448275867        3.9999999999999996     
  -34.180689655172415        3.9999999999999996     
  -34.188275862068970        4.0000000000000018     
  -34.195862068965525        3.9999999999999996     
  -34.203448275862073        3.9999999999999996     
  -34.211034482758627        3.9999999999999996     
  -34.218620689655175        3.9999999999999996     
  -34.226206896551730        3.9999999999999987     
  -34.233793103448278        3.9999999999999996     
  -34.241379310344833        3.9999999999999996     
  -34.248965517241388        3.9999999999999996     
  -34.256551724137935        3.9999999999999996     
  -34.264137931034490        3.9999999999999996     
  -34.271724137931038        3.9999999999999996     
  -34.279310344827593        3.9999999999999996     
  -34.286896551724141        3.9999999999999996     
  -34.294482758620696        3.9999999999999996     
  -34.302068965517243        3.9999999999999996     
  -34.309655172413798        3.9999999999999996     
  -34.317241379310353        4.0000000000000018     
  -34.324827586206901        3.9999999999999996     
  -34.332413793103456        4.0000000000000018     
  -34.340000000000003        3.9999999999999996     
  -34.347586206896558        3.9999999999999996     
  -34.355172413793106        3.9999999999999996     
  -34.362758620689661        3.9999999999999996     
  -34.370344827586209        3.9999999999999996     
  -34.377931034482764        3.9999999999999991     
  -34.385517241379318        3.9999999999999996     
  -34.393103448275866        3.9999999999999996     
  -34.400689655172421        3.9999999999999996     
  -34.408275862068969        3.9999999999999991     
  -34.415862068965524        3.9999999999999991     
  -34.423448275862071        3.9999999999999996     
  -34.431034482758626        3.9999999999999996     
  -34.438620689655174        3.9999999999999996     
  -34.446206896551729        3.9999999999999996     
  -34.453793103448284        3.9999999999999991     
  -34.461379310344832        3.9999999999999991     
  -34.468965517241386        3.9999999999999996     
  -34.476551724137934        3.9999999999999996     
  -34.484137931034489        3.9999999999999996     
  -34.491724137931037        3.9999999999999996     
  -34.499310344827592        3.9999999999999996     
  -34.506896551724139        3.9999999999999987     
  -34.514482758620694        3.9999999999999996     
  -34.522068965517249        3.9999999999999996     
  -34.529655172413797        3.9999999999999996     
  -34.537241379310352        3.9999999999999996     
  -34.544827586206900        3.9999999999999996     
  -34.552413793103455        3.9999999999999996     
  -34.560000000000002        3.9999999999999996     
  -34.567586206896557        3.9999999999999996     
  -34.575172413793112        3.9999999999999996     
  -34.582758620689660        3.9999999999999991     
  -34.590344827586215        3.9999999999999996     
  -34.597931034482762        3.9999999999999996     
  -34.605517241379317        3.9999999999999996     
  -34.613103448275865        3.9999999999999996     
  -34.620689655172420        4.0000000000000018     
  -34.628275862068968        3.9999999999999991     
  -34.635862068965523        3.9999999999999996     
  -34.643448275862070        3.9999999999999996     
  -34.651034482758625        3.9999999999999991     
  -34.658620689655180        3.9999999999999996     
  -34.666206896551728        3.9999999999999996     
  -34.673793103448283        3.9999999999999996     
  -34.681379310344830        3.9999999999999996     
  -34.688965517241385        3.9999999999999996     
  -34.696551724137933        3.9999999999999996     
  -34.704137931034488        3.9999999999999996     
  -34.711724137931043        4.0000000000000018     
  -34.719310344827591        3.9999999999999991     
  -34.726896551724145        3.9999999999999996     
  -34.734482758620693        3.9999999999999996     
  -34.742068965517248        3.9999999999999991     
  -34.749655172413796        3.9999999999999996     
  -34.757241379310351        3.9999999999999996     
  -34.764827586206906        3.9999999999999996     
  -34.772413793103453        3.9999999999999996     
  -34.780000000000008        3.9999999999999996     
  -34.787586206896556        3.9999999999999996     
  -34.795172413793111        3.9999999999999996     
  -34.802758620689659        3.9999999999999996     
  -34.810344827586214        3.9999999999999996     
  -34.817931034482761        3.9999999999999996     
  -34.825517241379316        4.0000000000000018     
  -34.833103448275864        3.9999999999999996     
  -34.840689655172419        3.9999999999999996     
  -34.848275862068974        4.0000000000000018     
  -34.855862068965521        3.9999999999999991     
  -34.863448275862076        4.0000000000000018     
  -34.871034482758624        3.9999999999999991     
  -34.878620689655179        3.9999999999999996     
  -34.886206896551727        3.9999999999999996     
  -34.893793103448282        3.9999999999999987     
  -34.901379310344836        3.9999999999999991     
  -34.908965517241384        3.9999999999999996     
  -34.916551724137939        3.9999999999999996     
  -34.924137931034487        3.9999999999999996     
  -34.931724137931042        3.9999999999999991     
  -34.939310344827589        3.9999999999999996     
  -34.946896551724144        3.9999999999999996     
  -34.954482758620692        3.9999999999999996     
  -34.962068965517247        3.9999999999999996     
  -34.969655172413795        3.9999999999999996     
  -34.977241379310350        3.9999999999999996     
  -34.984827586206904        4.0000000000000018     
  -34.992413793103452        3.9999999999999996     
  -35.000000000000007        3.9999999999999991     
>
  -30.600000000000001       -79.999999999999986     
  -30.607586206896553       -80.000000000000014     
  -30.615172413793104       -80.000000000000000     
  -30.622758620689655       -80.000000000000000     
  -30.630344827586207       -80.000000000000014     
  -30.637931034482762       -80.000000000000000     
  -30.645517241379313       -80.000000000000014     
  -30.653103448275864       -79.999999999999986     
  -30.660689655172416       -79.999999999999986     
  -30.668275862068967       -80.000000000000014     
  -30.675862068965518       -80.000000000000000     
  -30.683448275862069       -80.000000000000000     
  -30.691034482758621       -80.000000000000000     
  -30.698620689655176       -80.000000000000000     
  -30.706206896551727       -80.000000000000000     
  -30.713793103448278       -80.000000000000000     
  -30.721379310344830       -79.999999999999986     
  -30.728965517241381       -79.999999999999986     
  -30.736551724137932       -80.000000000000000     
  -30.744137931034484       -80.000000000000000     
  -30.751724137931035       -80.000000000000000     
  -30.759310344827586       -80.000000000000014     
  -30.766896551724141       -79.999999999999986     
  -30.774482758620692       -79.999999999999986     
  -30.782068965517244       -80.000000000000000     
  -30.789655172413795       -79.999999999999986     
  -30.797241379310346       -80.000000000000000     
  -30.804827586206898       -80.000000000000000     
  -30.812413793103449       -80.000000000000000     
  -30.820000000000000       -80.000000000000000     
  -30.827586206896552       -80.000000000000000     
  -30.835172413793106       -80.000000000000000     
  -30.842758620689658       -80.000000000000014     
  -30.850344827586209       -80.000000000000000     
  -30.857931034482760       -80.000000000000000     
  -30.865517241379312       -80.000000000000000     
  -30.873103448275863       -80.000000000000000     
  -30.880689655172414       -80.000000000000000     
  -30.888275862068966       -80.000000000000000     
  -30.895862068965521       -79.999999999999986     
  -30.903448275862072       -80.000000000000014     
  -30.911034482758623       -80.000000000000000     
  -30.918620689655175       -80.000000000000014     
  -30.926206896551726       -80.000000000000000     
  -30.933793103448277       -80.000000000000000     
  -30.941379310344828       -79.999999999999986     
  -30.948965517241380       -80.000000000000000     
  -30.956551724137931       -80.000000000000000     
  -30.964137931034486       -80.000000000000000     
  -30.971724137931037       -80.000000000000000     
  -30.979310344827589       -79.999999999999986     
  -30.986896551724140       -80.000000000000014     
  -30.994482758620691       -80.000000000000000     
  -31.002068965517243       -80.000000000000014     
  -31.009655172413794       -80.000000000000000     
  -31.017241379310345       -80.000000000000014     
  -31.024827586206900       -80.000000000000014     
  -31.032413793103451       -80.000000000000000     
  -31.040000000000003       -80.000000000000000     
  -31.047586206896554       -80.000000000000014     
  -31.055172413793105       -79.999999999999986     
  -31.062758620689657       -79.999999999999986     
  -31.070344827586208       -79.999999999999986     
  -31.077931034482759       -80.000000000000000     
  -31.085517241379311       -80.000000000000000     
  -31.093103448275865       -80.000000000000000     
  -31.100689655172417       -80.000000000000000     
  -31.108275862068968       -80.000000000000000     
  -31.115862068965519       -80.000000000000000     
  -31.123448275862071       -80.000000000000000     
  -31.131034482758622       -80.000000000000014     
  -31.138620689655173       -79.999999999999986     
  -31.146206896551725       -80.000000000000000     
  -31.153793103448280       -80.000000000000000     
  -31.161379310344831       -80.000000000000000     
  -31.168965517241382       -80.000000000000000     
  -31.176551724137934       -80.000000000000014     
  -31.184137931034485       -80.000000000000000     
  -31.191724137931036       -80.000000000000000     
  -31.199310344827587       -80.000000000000000     
  -31.206896551724139       -80.000000000000000     
  -31.214482758620690       -80.000000000000014     
  -31.222068965517245       -80.000000000000000     
  -31.229655172413796       -80.000000000000000     
  -31.237241379310348       -80.000000000000000     
  -31.244827586206899       -79.999999999999986     
  -31.252413793103450       -80.000000000000000     
  -31.260000000000002       -80.000000000000000     
  -31.267586206896553       -80.000000000000014     
  -31.275172413793104       -80.000000000000000     
  -31.282758620689656       -80.000000000000014     
  -31.290344827586210       -80.000000000000000     
  -31.297931034482762       -80.000000000000014     
  -31.305517241379313       -80.000000000000014     
  -31.313103448275864       -80.000000000000000     
  -31.320689655172416       -80.000000000000000     
  -31.328275862068967       -80.000000000000000     
  -31.335862068965518       -79.999999999999986     
  -31.343448275862070       -80.000000000000000     
  -31.351034482758624       -80.000000000000000     
  -31.358620689655176       -80.000000000000000     
  -31.366206896551727       -80.000000000000000     
  -31.373793103448278       -80.000000000000000     
  -31.381379310344830       -80.000000000000000     
  -31.388965517241381       -80.000000000000000     
  -31.396551724137932       -80.000000000000000     
  -31.404137931034484       -80.000000000000000     
  -31.411724137931035       -80.000000000000000     
  -31.419310344827590       -80.000000000000000     
  -31.426896551724141       -80.000000000000000     
  -31.434482758620693       -80.000000000000000     
  -31.442068965517244       -80.000000000000014     
  -31.449655172413795       -80.000000000000014     
  -31.457241379310346       -79.999999999999986     
  -31.464827586206898       -80.000000000000000     
  -31.472413793103449       -80.000000000000000     
  -31.480000000000004       -80.000000000000014     
  -31.487586206896555       -80.000000000000000     
  -31.495172413793107       -80.000000000000014     
  -31.502758620689658       -80.000000000000000     
  -31.510344827586209       -80.000000000000000     
  -31.517931034482761       -79.999999999999986     
  -31.525517241379312       -80.000000000000000     
  -31.533103448275863       -79.999999999999986     
  -31.540689655172415       -80.000000000000000     
  -31.548275862068969       -80.000000000000000     
  -31.555862068965521       -80.000000000000000     
  -31.563448275862072       -80.000000000000000     
  -31.571034482758623       -80.000000000000014     
  -31.578620689655175       -80.000000000000014     
  -31.586206896551726       -80.000000000000000     
  -31.593793103448277       -80.000000000000000     
  -31.601379310344829       -80.000000000000000     
  -31.608965517241380       -80.000000000000000     
  -31.616551724137935       -80.000000000000000     
  -31.624137931034486       -79.999999999999986     
  -31.631724137931037       -80.000000000000000     
  -31.639310344827589       -80.000000000000000     
  -31.646896551724140       -79.999999999999986     
  -31.654482758620691       -80.000000000000014     
  -31.662068965517243       -80.000000000000014     
  -31.669655172413794       -80.000000000000014     
  -31.677241379310349       -80.000000000000000     
  -31.684827586206900       -79.999999999999986     
  -31.692413793103452       -80.000000000000000     
  -31.700000000000003       -80.000000000000000     
  -31.707586206896554       -80.000000000000000     
  -31.715172413793105       -80.000000000000000     
  -31.722758620689657       -80.000000000000014     
  -31.730344827586208       -80.000000000000000     
  -31.737931034482759       -79.999999999999986     
  -31.745517241379314       -80.000000000000000     
  -31.753103448275866       -80.000000000000014     
  -31.760689655172417       -80.000000000000000     
  -31.768275862068968       -80.000000000000000     
  -31.775862068965520       -80.000000000000000     
  -31.783448275862071       -80.000000000000000     
  -31.791034482758622       -80.000000000000000     
  -31.798620689655174       -80.000000000000000     
  -31.806206896551728       -80.000000000000014     
  -31.813793103448280       -80.000000000000000     
  -31.821379310344831       -80.000000000000000     
  -31.828965517241382       -80.000000000000000     
  -31.836551724137934       -80.000000000000000     
  -31.844137931034485       -79.999999999999986     
  -31.851724137931036       -80.000000000000000     
  -31.859310344827588       -80.000000000000000     
  -31.866896551724139       -80.000000000000000     
  -31.874482758620694       -80.000000000000000     
  -31.882068965517245       -80.000000000000014     
  -31.889655172413796       -80.000000000000000     
  -31.897241379310348       -80.000000000000000     
  -31.904827586206899       -80.000000000000000     
  -31.912413793103450       -80.000000000000014     
  -31.920000000000002       -79.999999999999986     
  -31.927586206896553       -80.000000000000000     
  -31.935172413793104       -80.000000000000014     
  -31.942758620689659       -80.000000000000000     
  -31.950344827586211       -80.000000000000000     
  -31.957931034482762       -80.000000000000000     
  -31.965517241379313       -80.000000000000000     
  -31.973103448275864       -80.000000000000000     
  -31.980689655172416       -80.000000000000000     
  -31.988275862068967       -80.000000000000014     
  -31.995862068965518       -80.000000000000014     
  -32.003448275862070       -80.000000000000000     
  -32.011034482758625       -79.999999999999986     
  -32.018620689655172       -80.000000000000014     
  -32.026206896551727       -80.000000000000014     
  -32.033793103448275       -80.000000000000000     
  -32.041379310344830       -79.999999999999986     
  -32.048965517241385       -80.000000000000014     
  -32.056551724137933       -79.999999999999986     
  -32.064137931034487       -80.000000000000000     
  -32.071724137931035       -80.000000000000014     
  -32.079310344827590       -80.000000000000000     
  -32.086896551724138       -80.000000000000000     
  -32.094482758620693       -80.000000000000000     
  -32.102068965517248       -80.000000000000000     
  -32.109655172413795       -79.999999999999986     
  -32.117241379310350       -80.000000000000000     
  -32.124827586206898       -79.999999999999986     
  -32.132413793103453       -80.000000000000000     
  -32.140000000000001       -80.000000000000000     
  -32.147586206896555       -80.000000000000000     
  -32.155172413793103       -80.000000000000000     
  -32.162758620689658       -79.999999999999986     
  -32.170344827586213       -80.000000000000000     
  -32.177931034482761       -80.000000000000000     
  -32.185517241379316       -80.000000000000000     
  -32.193103448275863       -80.000000000000000     
  -32.200689655172418       -80.000000000000000     
  -32.208275862068966       -79.999999999999986     
  -32.215862068965521       -79.999999999999986     
  -32.223448275862069       -79.999999999999986     
  -32.231034482758623       -80.000000000000000     
  -32.238620689655178       -80.000000000000000     
  -32.246206896551726       -80.000000000000014     
  -32.253793103448281       -80.000000000000000     
  -32.261379310344829       -80.000000000000000     
  -32.268965517241384       -80.000000000000000     
  -32.276551724137931       -80.000000000000000     
  -32.284137931034486       -79.999999999999986     
  -32.291724137931041       -80.000000000000014     
  -32.299310344827589       -80.000000000000014     
  -32.306896551724144       -80.000000000000000     
  -32.314482758620692       -80.000000000000000     
  -32.322068965517246       -80.000000000000000     
  -32.329655172413794       -80.000000000000014     
  -32.337241379310349       -80.000000000000000     
  -32.344827586206897       -80.000000000000000     
  -32.352413793103452       -80.000000000000000     
  -32.359999999999999       -80.000000000000000     
  -32.367586206896554       -80.000000000000000     
  -32.375172413793109       -80.000000000000000     
  -32.382758620689657       -79.999999999999986     
  -32.390344827586212       -80.000000000000000     
  -32.397931034482760       -80.000000000000000     
  -32.405517241379314       -80.000000000000000     
  -32.413103448275862       -80.000000000000000     
  -32.420689655172417       -79.999999999999986     
  -32.428275862068972       -80.000000000000014     
  -32.435862068965520       -80.000000000000000     
  -32.443448275862075       -80.000000000000000     
  -32.451034482758622       -80.000000000000000     
  -32.458620689655177       -80.000000000000000     
  -32.466206896551725       -80.000000000000014     
  -32.473793103448280       -80.000000000000000     
  -32.481379310344828       -80.000000000000000     
  -32.488965517241382       -80.000000000000000     
  -32.496551724137937       -80.000000000000000     
  -32.504137931034485       -80.000000000000000     
  -32.511724137931040       -80.000000000000000     
  -32.519310344827588       -80.000000000000000     
  -32.526896551724143       -80.000000000000000     
  -32.534482758620690       -79.999999999999986     
  -32.542068965517245       -80.000000000000014     
  -32.549655172413793       -80.000000000000000     
  -32.557241379310348       -80.000000000000014     
  -32.564827586206903       -79.999999999999986     
  -32.572413793103451       -79.999999999999986     
  -32.580000000000005       -80.000000000000000     
  -32.587586206896553       -80.000000000000000     
  -32.595172413793108       -79.999999999999986     
  -32.602758620689656       -80.000000000000000     
  -32.610344827586211       -80.000000000000000     
  -32.617931034482766       -80.000000000000000     
  -32.625517241379313       -79.999999999999986     
  -32.633103448275868       -80.000000000000000     
  -32.640689655172416       -80.000000000000014     
  -32.648275862068971       -80.000000000000014     
  -32.655862068965519       -80.000000000000000     
  -32.663448275862073       -80.000000000000000     
  -32.671034482758621       -80.000000000000000     
  -32.678620689655176       -80.000000000000000     
  -32.686206896551724       -80.000000000000000     
  -32.693793103448279       -80.000000000000014     
  -32.701379310344834       -80.000000000000000     
  -32.708965517241381       -80.000000000000000     
  -32.716551724137936       -80.000000000000000     
  -32.724137931034484       -80.000000000000000     
  -32.731724137931039       -80.000000000000014     
  -32.739310344827587       -80.000000000000000     
  -32.746896551724141       -80.000000000000000     
  -32.754482758620696       -80.000000000000014     
  -32.762068965517244       -80.000000000000000     
  -32.769655172413799       -79.999999999999986     
  -32.777241379310347       -80.000000000000000     
  -32.784827586206902       -80.000000000000000     
  -32.792413793103449       -80.000000000000000     
  -32.800000000000004       -80.000000000000000     
  -32.807586206896552       -80.000000000000014     
  -32.815172413793107       -80.000000000000000     
  -32.822758620689662       -80.000000000000000     
  -32.830344827586210       -80.000000000000000     
  -32.837931034482764       -80.000000000000000     
  -32.845517241379312       -80.000000000000000     
  -32.853103448275867       -80.000000000000000     
  -32.860689655172415       -79.999999999999986     
  -32.868275862068970       -80.000000000000000     
  -32.875862068965517       -80.000000000000000     
  -32.883448275862072       -80.000000000000000     
  -32.891034482758627       -80.000000000000000     
  -32.898620689655175       -80.000000000000014     
  -32.906206896551730       -80.000000000000000     
  -32.913793103448278       -80.000000000000000     
  -32.921379310344832       -79.999999999999986     
  -32.928965517241380       -79.999999999999986     
  -32.936551724137935       -80.000000000000014     
  -32.944137931034490       -80.000000000000000     
  -32.951724137931038       -80.000000000000014     
  -32.959310344827593       -80.000000000000014     
  -32.966896551724140       -80.000000000000000     
  -32.974482758620695       -80.000000000000000     
  -32.982068965517243       -79.999999999999986     
  -32.989655172413798       -80.000000000000014     
  -32.997241379310346       -80.000000000000000     
  -33.004827586206900       -80.000000000000000     
  -33.012413793103448       -80.000000000000000     
  -33.020000000000003       -80.000000000000000     
  -33.027586206896558       -80.000000000000000     
  -33.035172413793106       -80.000000000000000     
  -33.042758620689661       -80.000000000000000     
  -33.050344827586208       -80.000000000000000     
  -33.057931034482763       -79.999999999999986     
  -33.065517241379311       -80.000000000000000     
  -33.073103448275866       -79.999999999999986     
  -33.080689655172421       -79.999999999999986     
  -33.088275862068969       -80.000000000000000     
  -33.095862068965523       -80.000000000000000     
  -33.103448275862071       -80.000000000000000     
  -33.111034482758626       -80.000000000000014     
  -33.118620689655174       -80.000000000000000     
  -33.126206896551729       -80.000000000000000     
  -33.133793103448276       -80.000000000000000     
  -33.141379310344831       -80.000000000000000     
  -33.148965517241386       -79.999999999999986     
  -33.156551724137934       -80.000000000000000     
  -33.164137931034489       -80.000000000000014     
  -33.171724137931037       -80.000000000000000     
  -33.179310344827591       -80.000000000000000     
  -33.186896551724139       -80.000000000000014     
  -33.194482758620694       -80.000000000000000     
  -33.202068965517242       -80.000000000000014     
  -33.209655172413797       -80.000000000000000     
  -33.217241379310352       -80.000000000000000     
  -33.224827586206899       -80.000000000000000     
  -33.232413793103454       -80.000000000000000     
  -33.240000000000002       -80.000000000000000     
  -33.247586206896557       -80.000000000000014     
  -33.255172413793105       -80.000000000000014     
  -33.262758620689659       -80.000000000000000     
  -33.270344827586214       -80.000000000000000     
  -33.277931034482762       -79.999999999999986     
  -33.285517241379317       -80.000000000000000     
  -33.293103448275865       -80.000000000000014     
  -33.300689655172420       -79.999999999999972     
  -33.308275862068967       -80.000000000000000     
  -33.315862068965522       -80.000000000000000     
  -33.323448275862070       -80.000000000000000     
  -33.331034482758625       -80.000000000000000     
  -33.338620689655173       -80.000000000000000     
  -33.346206896551728       -80.000000000000000     
  -33.353793103448282       -80.000000000000000     
  -33.361379310344830       -80.000000000000000     
  -33.368965517241385       -80.000000000000000     
  -33.376551724137933       -80.000000000000000     
  -33.384137931034488       -79.999999999999986     
  -33.391724137931035       -80.000000000000014     
  -33.399310344827590       -80.000000000000014     
  -33.406896551724145       -80.000000000000000     
  -33.414482758620693       -80.000000000000000     
  -33.422068965517248       -80.000000000000000     
  -33.429655172413796       -80.000000000000000     
  -33.437241379310350       -80.000000000000014     
  -33.444827586206898       -80.000000000000000     
  -33.452413793103453       -80.000000000000000     
  -33.460000000000001       -80.000000000000000     
  -33.467586206896556       -79.999999999999986     
  -33.475172413793111       -79.999999999999986     
  -33.482758620689658       -80.000000000000014     
  -33.490344827586213       -80.000000000000014     
  -33.497931034482761       -80.000000000000000     
  -33.505517241379316       -79.999999999999986     
  -33.513103448275864       -79.999999999999986     
  -33.520689655172418       -79.999999999999986     
  -33.528275862068966       -80.000000000000000     
  -33.535862068965521       -80.000000000000000     
  -33.543448275862076       -80.000000000000014     
  -33.551034482758624       -80.000000000000014     
  -33.558620689655179       -79.999999999999986     
  -33.566206896551726       -80.000000000000000     
  -33.573793103448281       -80.000000000000000     
  -33.581379310344829       -80.000000000000000     
  -33.588965517241384       -80.000000000000000     
  -33.596551724137939       -79.999999999999986     
  -33.604137931034487       -80.000000000000000     
  -33.611724137931041       -80.000000000000000     
  -33.619310344827589       -80.000000000000000     
  -33.626896551724144       -79.999999999999986     
  -33.634482758620692       -80.000000000000000     
  -33.642068965517247       -80.000000000000000     
  -33.649655172413794       -80.000000000000000     
  -33.657241379310349       -79.999999999999986     
  -33.664827586206897       -80.000000000000000     
  -33.672413793103452       -79.999999999999986     
  -33.680000000000007       -80.000000000000000     
  -33.687586206896555       -80.000000000000000     
  -33.695172413793109       -80.000000000000014     
  -33.702758620689657       -79.999999999999972     
  -33.710344827586212       -80.000000000000000     
  -33.717931034482760       -80.000000000000000     
  -33.725517241379315       -80.000000000000000     
  -33.733103448275870       -80.000000000000000     
  -33.740689655172417       -80.000000000000000     
  -33.748275862068972       -80.000000000000000     
  -33.755862068965520       -80.000000000000014     
  -33.763448275862075       -80.000000000000000     
  -33.771034482758623       -80.000000000000000     
  -33.778620689655178       -80.000000000000000     
  -33.786206896551725       -80.000000000000000     
  -33.793793103448280       -80.000000000000014     
  -33.801379310344835       -79.999999999999986     
  -33.808965517241383       -80.000000000000000     
  -33.816551724137938       -80.000000000000000     
  -33.824137931034485       -80.000000000000000     
  -33.831724137931040       -80.000000000000014     
  -33.839310344827588       -80.000000000000000     
  -33.846896551724143       -80.000000000000000     
  -33.854482758620691       -80.000000000000014     
  -33.862068965517246       -80.000000000000000     
  -33.869655172413800       -80.000000000000000     
  -33.877241379310348       -80.000000000000000     
  -33.884827586206903       -80.000000000000000     
  -33.892413793103451       -79.999999999999986     
  -33.900000000000006       -80.000000000000000     
  -33.907586206896553       -80.000000000000000     
  -33.915172413793108       -80.000000000000000     
  -33.922758620689663       -80.000000000000000     
  -33.930344827586211       -80.000000000000014     
  -33.937931034482766       -80.000000000000000     
  -33.945517241379314       -79.999999999999986     
  -33.953103448275868       -80.000000000000000     
  -33.960689655172416       -79.999999999999986     
  -33.968275862068971       -80.000000000000000     
  -33.975862068965519       -80.000000000000000     
  -33.983448275862074       -80.000000000000000     
  -33.991034482758621       -80.000000000000000     
  -33.998620689655176       -80.000000000000000     
  -34.006206896551731       -79.999999999999986     
  -34.013793103448279       -80.000000000000000     
  -34.021379310344834       -80.000000000000000     
  -34.028965517241382       -79.999999999999986     
  -34.036551724137937       -80.000000000000000     
  -34.044137931034484       -79.999999999999986     
  -34.051724137931039       -80.000000000000000     
  -34.059310344827594       -80.000000000000000     
  -34.066896551724142       -80.000000000000000     
  -34.074482758620697       -79.999999999999986     
  -34.082068965517244       -80.000000000000000     
  -34.089655172413799       -80.000000000000000     
  -34.097241379310347       -80.000000000000000     
  -34.104827586206902       -80.000000000000000     
  -34.112413793103450       -80.000000000000000     
  -34.120000000000005       -79.999999999999986     
  -34.127586206896559       -80.000000000000000     
  -34.135172413793107       -80.000000000000000     
  -34.142758620689662       -80.000000000000014     
  -34.150344827586210       -80.000000000000000     
  -34.157931034482765       -80.000000000000000     
  -34.165517241379312       -80.000000000000014     
  -34.173103448275867       -80.000000000000000     
  -34.180689655172415       -80.000000000000000     
  -34.188275862068970       -80.000000000000000     
  -34.195862068965525       -80.000000000000000     
  -34.203448275862073       -80.000000000000000     
  -34.211034482758627       -80.000000000000000     
  -34.218620689655175       -80.000000000000000     
  -34.226206896551730       -80.000000000000000     
  -34.233793103448278       -80.000000000000000     
  -34.241379310344833       -80.000000000000000     
  -34.248965517241388       -80.000000000000000     
  -34.256551724137935       -79.999999999999986     
  -34.264137931034490       -80.000000000000000     
  -34.271724137931038       -80.000000000000000     
  -34.279310344827593       -80.000000000000000     
  -34.286896551724141       -80.000000000000014     
  -34.294482758620696       -80.000000000000000     
  -34.302068965517243       -80.000000000000014     
  -34.309655172413798       -80.000000000000014     
  -34.317241379310353       -80.000000000000000     
  -34.324827586206901       -80.000000000000000     
  -34.332413793103456       -80.000000000000000     
  -34.340000000000003       -80.000000000000014     
  -34.347586206896558       -80.000000000000000     
  -34.355172413793106       -80.000000000000000     
  -34.362758620689661       -79.999999999999986     
  -34.370344827586209       -80.000000000000000     
  -34.377931034482764       -80.000000000000000     
  -34.385517241379318       -80.000000000000000     
  -34.393103448275866       -80.000000000000014     
  -34.400689655172421       -80.000000000000014     
  -34.408275862068969       -80.000000000000000     
  -34.415862068965524       -80.000000000000000     
  -34.423448275862071       -80.000000000000000     
  -34.431034482758626       -80.000000000000014     
  -34.438620689655174       -80.000000000000000     
  -34.446206896551729       -80.000000000000000     
  -34.453793103448284       -79.999999999999986     
  -34.461379310344832       -79.999999999999986     
  -34.468965517241386       -80.000000000000000     
  -34.476551724137934       -80.000000000000000     
  -34.484137931034489       -80.000000000000000     
  -34.491724137931037       -80.000000000000000     
  -34.499310344827592       -79.999999999999986     
  -34.506896551724139       -79.999999999999986     
  -34.514482758620694       -80.000000000000000     
  -34.522068965517249       -80.000000000000000     
  -34.529655172413797       -80.000000000000000     
  -34.537241379310352       -79.999999999999986     
  -34.544827586206900       -80.000000000000000     
  -34.552413793103455       -80.000000000000000     
  -34.560000000000002       -80.000000000000000     
  -34.567586206896557       -80.000000000000000     
  -34.575172413793112       -80.000000000000000     
  -34.582758620689660       -80.000000000000000     
  -34.590344827586215       -80.000000000000000     
  -34.597931034482762       -80.000000000000000     
  -34.605517241379317       -80.000000000000000     
  -34.613103448275865       -80.000000000000000     
  -34.620689655172420       -80.000000000000014     
  -34.628275862068968       -80.000000000000000     
  -34.635862068965523       -80.000000000000000     
  -34.643448275862070       -80.000000000000000     
  -34.651034482758625       -80.000000000000000     
  -34.658620689655180       -80.000000000000000     
  -34.666206896551728       -80.000000000000000     
  -34.673793103448283       -79.999999999999986     
  -34.681379310344830       -80.000000000000000     
  -34.688965517241385       -80.000000000000000     
  -34.696551724137933       -80.000000000000000     
  -34.704137931034488       -80.000000000000014     
  -34.711724137931043       -80.000000000000000     
  -34.719310344827591       -80.000000000000000     
  -34.726896551724145       -80.000000000000000     
  -34.734482758620693       -80.000000000000000     
  -34.742068965517248       -80.000000000000000     
  -34.749655172413796       -80.000000000000000     
  -34.757241379310351       -80.000000000000014     
  -34.764827586206906       -80.000000000000014     
  -34.772413793103453       -80.000000000000000     
  -34.780000000000008       -80.000000000000000     
  -34.787586206896556       -80.000000000000014     
  -34.795172413793111       -80.000000000000000     
  -34.802758620689659       -80.000000000000000     
  -34.810344827586214       -80.000000000000000     
  -34.817931034482761       -80.000000000000014     
  -34.825517241379316       -80.000000000000000     
  -34.833103448275864       -80.000000000000000     
  -34.840689655172419       -80.000000000000000     
  -34.848275862068974       -80.000000000000014     
  -34.855862068965521       -80.000000000000000     
  -34.863448275862076       -80.000000000000000     
  -34.871034482758624       -79.999999999999986     
  -34.878620689655179       -80.000000000000000     
  -34.886206896551727       -80.000000000000000     
  -34.893793103448282       -79.999999999999986     
  -34.901379310344836       -80.000000000000000     
  -34.908965517241384       -80.000000000000000     
  -34.916551724137939       -80.000000000000000     
  -34.924137931034487       -80.000000000000000     
  -34.931724137931042       -80.000000000000000     
  -34.939310344827589       -79.999999999999986     
  -34.946896551724144       -80.000000000000000     
  -34.954482758620692       -80.000000000000014     
  -34.962068965517247       -80.000000000000000     
  -34.969655172413795       -80.000000000000000     
  -34.977241379310350       -80.000000000000000     
  -34.984827586206904       -80.000000000000000     
  -34.992413793103452       -80.000000000000000     
  -35.000000000000007       -79.999999999999986     
>
